Name
Date of Birth,"Jun 12, 2006"
Recorded Date,2023-03-04 20:55:07 -0500
Classification,Poor Recording
Symptoms,
Software Version,1.90
Device,"Watch6,7"
Sample Rate,512 hertz


Lead,Lead I
Unit,µV

-107.825
-121.163
-134.514
-147.492
-159.598
-170.466
-179.47
-185.988
-190.238
-192.493
-192.773
-191.273
-188.166
-183.558
-177.925
-171.802
-165.104
-157.781
-149.964
-141.671
-133.099
-124.499
-115.883
-107.242
-98.813
-90.78
-83.259
-76.387
-70.129
-64.409
-59.219
-54.506
-50.175
-46.134
-42.263
-38.459
-34.683
-30.895
-27.054
-23.133
-19.094
-14.919
-10.614
-6.174
-1.598
3.103
7.919
12.814
17.74
22.668
27.57
32.391
37.096
41.659
46.051
50.296
54.435
58.453
62.322
66.159
70.099
74.072
78.09
82.185
86.092
90.562
96.324
102.356
108.351
112.42
112.3
110.494
108.664
109.292
115.78
125.1
134.682
142.76
146.426
147.743
148.801
150.055
152.774
156.202
159.368
162.441
165.282
167.943
170.603
173.122
175.387
177.419
179.217
180.759
182.04
183.06
183.819
184.329
184.61
184.651
184.444
183.994
183.303
182.379
181.23
179.862
178.284
176.509
174.551
172.427
170.152
167.743
165.217
162.593
159.889
157.126
154.321
151.497
148.671
145.863
143.091
140.374
137.728
135.17
132.714
130.374
128.161
126.088
124.162
122.391
120.782
119.338
118.062
116.955
116.013
115.234
114.613
114.141
113.809
113.604
113.514
113.523
113.615
113.772
113.976
114.207
114.445
114.67
114.861
114.998
115.062
115.031
114.888
114.614
114.191
113.6
112.826
111.849
110.656
109.232
107.561
105.634
103.44
100.972
98.229
95.209
91.911
88.337
84.49
80.373
75.992
71.353
66.461
61.325
55.957
50.369
44.585
38.621
32.488
26.194
19.741
13.124
6.344
-0.598
-7.709
-14.985
-22.414
-29.978
-37.64
-45.364
-53.124
-60.904
-68.701
-76.512
-84.316
-92.084
-99.781
-107.357
-114.77
-121.979
-128.929
-135.585
-141.938
-147.998
-153.812
-159.44
-164.913
-170.239
-175.397
-180.36
-185.122
-189.687
-194.062
-198.27
-202.326
-206.249
-210.075
-213.826
-217.493
-221.041
-224.399
-227.496
-230.3
-232.832
-235.148
-237.306
-239.366
-241.398
-243.481
-245.703
-248.132
-250.808
-253.792
-257.207
-261.131
-265.535
-270.259
-275.011
-279.535
-283.632
-286.992
-289.157
-289.78
-288.873
-286.937
-284.762
-282.896
-281.628
-281.26
-282.118
-284.452
-287.114
-287.173
-282.593
-272.313
-256.994
-239.693
-218.703
-188.667
-145.169
-82.878
-3.777
82.973
170.202
250.181
318.097
374.637
419.088
450.024
466.72
467.194
449.729
415.453
366.965
306.234
236.892
161.256
80.426
0.364
-73.223
-134.459
-177.643
-204.946
-219.74
-225.541
-226.888
-223.637
-216.361
-207.265
-197.484
-189.387
-184.295
-181.759
-181.573
-183.042
-185.079
-186.824
-187.284
-185.89
-182.751
-178.242
-172.877
-167.144
-161.441
-156.2
-151.862
-148.655
-146.588
-145.544
-145.279
-145.587
-146.307
-147.255
-148.26
-149.167
-149.825
-150.111
-149.923
-149.179
-147.832
-145.857
-143.24
-139.994
-136.148
-131.746
-126.855
-121.538
-115.852
-109.852
-103.588
-97.118
-90.509
-83.825
-77.131
-70.475
-63.889
-57.398
-51.022
-44.773
-38.655
-32.665
-26.793
-21.033
-15.384
-9.847
-4.423
0.887
6.09
11.186
16.181
21.073
25.865
30.554
35.14
39.62
43.99
48.246
52.379
56.385
60.261
64.003
67.608
71.071
74.388
77.556
80.57
83.427
86.12
88.643
90.991
93.156
95.134
96.917
98.5
99.875
101.038
101.981
102.7
103.19
103.444
103.46
103.232
102.759
102.037
101.066
99.843
98.369
96.646
94.674
92.458
90
87.305
84.379
81.228
77.86
74.282
70.504
66.535
62.384
58.063
53.583
48.956
44.193
39.308
34.313
29.22
24.043
18.792
13.481
8.121
2.721
-2.707
-8.154
-13.612
-19.072
-24.528
-29.974
-35.404
-40.814
-46.2
-51.559
-56.891
-62.193
-67.465
-72.706
-77.917
-83.1
-88.259
-93.394
-98.512
-103.617
-108.717
-113.819
-118.93
-124.056
-129.204
-134.38
-139.589
-144.837
-150.127
-155.461
-160.842
-166.272
-171.755
-177.291
-182.882
-188.524
-194.21
-199.938
-205.712
-211.537
-217.42
-223.372
-229.404
-235.537
-241.799
-248.21
-254.79
-261.55
-268.492
-275.627
-282.963
-290.5
-298.246
-306.192
-314.31
-322.573
-330.944
-339.365
-347.78
-356.115
-364.279
-372.206
-379.843
-387.151
-394.111
-400.695
-406.882
-412.675
-418.082
-423.124
-427.851
-432.31
-436.568
-440.734
-444.913
-449.227
-453.813
-458.766
-464.154
-470.029
-476.416
-483.342
-490.819
-498.821
-507.308
-516.23
-525.522
-535.125
-544.954
-554.871
-564.747
-574.439
-583.805
-592.738
-601.136
-608.918
-616.028
-622.419
-628.087
-633.057
-637.349
-641.008
-644.117
-646.676
-648.618
-649.801
-649.935
-648.741
-646.035
-641.597
-635.155
-626.621
-616.237
-604.599
-592.688
-581.463
-571.471
-563.088
-556.71
-552.317
-549.18
-545.868
-540.131
-529.546
-512.483
-487.742
-454.068
-410.84
-358.373
-297.892
-231.972
-163.866
-96.106
-30.924
28.846
80.489
121.822
151.161
167.903
172.378
164.426
143.466
111.106
69.858
21.111
-32.68
-90.975
-153.766
-215.55
-271.027
-316.017
-347.696
-369.965
-385.551
-393.5
-392.26
-378.771
-356.215
-334.907
-324.587
-331.736
-354.443
-382.047
-404.79
-417.061
-418.551
-415.015
-411.12
-408.475
-407.168
-405.402
-402.366
-398.813
-395.486
-392.96
-391.377
-390.469
-390.003
-389.906
-390.076
-390.355
-390.626
-390.817
-390.909
-390.902
-390.746
-390.331
-389.545
-388.274
-386.446
-384.027
-380.996
-377.354
-373.124
-368.337
-363.042
-357.303
-351.168
-344.685
-337.898
-330.845
-323.579
-316.16
-308.649
-301.114
-293.609
-286.17
-278.828
-271.606
-264.516
-257.57
-250.772
-244.115
-237.601
-231.233
-225.015
-218.954
-213.056
-207.32
-201.747
-196.336
-191.087
-186.001
-181.081
-176.328
-171.745
-167.335
-163.104
-159.056
-155.198
-151.531
-148.058
-144.781
-141.703
-138.826
-136.153
-133.685
-131.425
-129.377
-127.542
-125.926
-124.53
-123.358
-122.412
-121.694
-121.206
-120.949
-120.923
-121.129
-121.563
-122.224
-123.107
-124.208
-125.521
-127.038
-128.751
-130.649
-132.722
-134.958
-137.345
-139.867
-142.511
-145.258
-148.093
-150.997
-153.949
-156.93
-159.916
-162.888
-165.82
-168.69
-171.474
-174.149
-176.69
-179.073
-181.276
-183.275
-185.047
-186.571
-187.825
-188.79
-189.447
-189.779
-189.77
-189.406
-188.675
-187.566
-186.07
-184.178
-181.885
-179.185
-176.074
-172.549
-168.61
-164.257
-159.49
-154.313
-148.732
-142.753
-136.385
-129.641
-122.532
-115.072
-107.277
-99.161
-90.741
-82.031
-73.043
-63.793
-54.294
-44.563
-34.617
-24.473
-14.149
-3.662
6.966
17.715
28.57
39.516
50.545
61.646
72.798
83.978
95.155
106.295
117.363
128.329
139.151
149.803
160.263
170.522
180.588
190.47
200.167
209.667
218.946
227.98
236.768
245.312
253.618
261.716
269.629
277.384
285.033
292.597
300.072
307.437
314.631
321.581
328.247
334.605
340.658
346.43
351.922
357.134
362.067
366.694
370.993
374.932
378.447
381.518
384.163
386.418
388.367
390.116
391.717
393.2
394.558
395.722
396.641
397.276
397.581
397.551
397.173
396.432
395.342
393.888
392.042
389.752
386.893
383.411
379.397
375.041
370.705
366.804
363.628
361.531
360.962
362.034
364.611
368.31
372.348
376.173
379.649
382.505
384.453
385.777
387.156
389.855
395.815
406.419
422.411
444.788
474.519
511.925
556.832
607.935
662.813
719.477
776.175
830.328
879.029
919.498
948.954
965.799
969.5
959.201
934.608
896.943
848.239
791.217
729.501
666.327
604.788
548.728
500.438
459.943
426.953
401.572
385.699
382.875
394.032
414.37
434.065
443.142
436.121
415.305
390.413
370.556
360.775
361.351
367.134
373.869
380.144
385.899
392.683
401.193
410.664
420.235
429.279
437.576
445.263
452.504
459.312
465.712
471.833
477.785
483.619
489.375
495.061
500.691
506.359
512.128
518.018
524.053
530.226
536.519
542.936
549.457
556.051
562.694
569.354
576.023
582.697
589.364
596.01
602.595
609.097
615.548
622.044
628.745
635.831
643.429
651.642
660.619
670.448
681.123
692.514
704.276
716.042
727.556
738.6
748.903
758.237
766.795
775.196
784.082
794.163
805.183
815.703
825.917
836.694
849.128
865.807
884.337
898.043
900.6
883.991
846.826
795.616
736.664
677.897
623.294
570.838
520.251
471.84
426.864
388.531
357.834
333.641
314.688
299.171
285.314
272.063
258.272
242.975
226.044
207.879
189.01
170.188
152.235
135.637
120.848
108.171
97.488
88.538
80.966
74.243
67.881
61.573
55.07
48.206
40.91
33.078
24.645
15.613
5.981
-4.274
-15.19
-26.798
-39.099
-52.052
-65.564
-79.504
-93.77
-108.28
-122.935
-137.649
-152.286
-166.652
-180.598
-193.999
-206.732
-218.698
-229.8
-239.934
-249.036
-257.069
-264.024
-269.94
-274.843
-278.719
-281.572
-283.438
-284.41
-284.647
-284.279
-283.369
-281.95
-280.098
-277.916
-275.367
-272.361
-269
-265.292
-261.213
-257.067
-252.139
-245.723
-238.913
-232.023
-226.94
-225.955
-226.492
-226.833
-224.446
-215.837
-204.1
-191.881
-181.024
-174.542
-170.351
-166.329
-162.006
-156.088
-149.355
-142.82
-136.345
-130.098
-124.047
-118.027
-112.2
-106.701
-101.534
-96.715
-92.263
-88.186
-84.486
-81.172
-78.24
-75.681
-73.515
-71.765
-70.444
-69.566
-69.137
-69.153
-69.608
-70.492
-71.784
-73.459
-75.484
-77.829
-80.463
-83.36
-86.499
-89.849
-93.374
-97.024
-100.739
-104.471
-108.187
-111.868
-115.506
-119.097
-122.653
-126.204
-129.796
-133.479
-137.296
-141.281
-145.484
-149.977
-154.828
-160.138
-166.03
-172.516
-179.526
-186.891
-194.312
-201.544
-208.397
-214.568
-219.774
-224
-227.473
-230.734
-234.519
-239.24
-245.033
-252.089
-260.38
-269.411
-278.205
-285.124
-288.297
-286.382
-278.566
-264.073
-242.318
-213.475
-178.546
-139.455
-98.89
-58.387
-17.959
20.613
54.532
79.495
88.815
82.161
65.029
45.249
33.782
33.272
36.857
34.964
15.882
-24.893
-82.528
-148.759
-212.672
-266.138
-304.675
-325.178
-328.782
-318.455
-299.862
-282.254
-271.101
-269.084
-275.791
-285.255
-294.022
-300.562
-303.467
-305.051
-306.219
-306.44
-306.317
-305.041
-302.137
-298.243
-293.536
-288.454
-283.651
-279.295
-275.43
-272.132
-269.313
-266.86
-264.715
-262.768
-260.888
-259.035
-257.174
-255.251
-253.211
-250.952
-248.379
-245.447
-242.125
-238.399
-234.262
-229.707
-224.746
-219.424
-213.785
-207.87
-201.713
-195.332
-188.758
-182.036
-175.215
-168.354
-161.503
-154.694
-147.956
-141.317
-134.795
-128.408
-122.164
-116.059
-110.095
-104.276
-98.61
-93.108
-87.778
-82.62
-77.638
-72.836
-68.216
-63.783
-59.541
-55.494
-51.647
-48.004
-44.574
-41.362
-38.376
-35.619
-33.093
-30.8
-28.741
-26.917
-25.327
-23.971
-22.847
-21.953
-21.289
-20.853
-20.641
-20.651
-20.879
-21.321
-21.974
-22.831
-23.889
-25.14
-26.579
-28.199
-29.995
-31.958
-34.08
-36.355
-38.775
-41.33
-44.014
-46.817
-49.732
-52.75
-55.864
-59.065
-62.346
-65.7
-69.117
-72.593
-76.12
-79.691
-83.301
-86.944
-90.615
-94.308
-98.018
-101.742
-105.475
-109.212
-112.952
-116.691
-120.427
-124.157
-127.88
-131.594
-135.299
-138.994
-142.677
-146.35
-150.01
-153.657
-157.291
-160.91
-164.514
-168.1
-171.667
-175.213
-178.736
-182.234
-185.705
-189.145
-192.55
-195.917
-199.243
-202.523
-205.752
-208.925
-212.037
-215.084
-218.06
-220.961
-223.781
-226.514
-229.156
-231.699
-234.141
-236.474
-238.693
-240.792
-242.766
-244.612
-246.324
-247.901
-249.339
-250.64
-251.804
-252.833
-253.73
-254.499
-255.143
-255.666
-256.072
-256.365
-256.547
-256.625
-256.603
-256.489
-256.292
-256.02
-255.679
-255.277
-254.819
-254.312
-253.762
-253.174
-252.551
-251.898
-251.226
-250.552
-249.896
-249.271
-248.684
-248.137
-247.629
-247.158
-246.718
-246.293
-245.855
-245.379
-244.845
-244.236
-243.539
-242.727
-241.76
-240.591
-239.171
-237.473
-235.494
-233.238
-230.701
-227.897
-224.85
-221.595
-218.218
-214.796
-211.39
-208.081
-204.952
-202.091
-199.647
-197.794
-196.575
-195.922
-195.64
-195.396
-194.98
-194.283
-193.076
-191.126
-188.43
-185.208
-182.062
-179.856
-178.969
-179.317
-180.799
-183.041
-185.362
-186.893
-186.084
-181.003
-170.484
-154.035
-131.426
-103.058
-69.513
-31.336
10.054
52.704
95.003
135.734
174.114
209.818
242.295
269.573
289.003
299.329
300.736
296.531
292.827
291.991
291.016
281.467
250.441
191.12
108.606
17.912
-59.834
-108.683
-126.243
-121.241
-107.904
-97.88
-94.818
-96.186
-97.485
-96.242
-92.72
-88.79
-86.563
-86.478
-88.035
-90.457
-92.483
-93.417
-93.136
-91.612
-89.155
-86.224
-83.132
-80.265
-78.095
-76.888
-76.774
-77.789
-79.815
-82.707
-86.348
-90.587
-95.263
-100.25
-105.428
-110.672
-115.873
-120.939
-125.8
-130.406
-134.728
-138.745
-142.45
-145.858
-149.002
-151.912
-154.621
-157.153
-159.528
-161.776
-163.932
-166.038
-168.137
-170.26
-172.423
-174.636
-176.905
-179.227
-181.596
-183.993
-186.392
-188.775
-191.125
-193.429
-195.679
-197.863
-199.969
-201.983
-203.898
-205.706
-207.403
-208.987
-210.456
-211.81
-213.053
-214.189
-215.224
-216.166
-217.019
-217.789
-218.484
-219.113
-219.688
-220.222
-220.73
-221.227
-221.729
-222.251
-222.809
-223.419
-224.098
-224.856
-225.709
-226.673
-227.766
-229.011
-230.427
-232.022
-233.8
-235.76
-237.887
-240.173
-242.605
-245.161
-247.826
-250.594
-253.462
-256.448
-259.566
-262.817
-266.193
-269.669
-273.22
-276.838
-280.52
-284.261
-288.074
-291.964
-295.943
-300.044
-304.277
-308.623
-313.039
-317.445
-321.74
-325.855
-329.731
-333.323
-336.598
-339.502
-341.981
-343.991
-345.474
-346.37
-346.611
-346.095
-344.75
-342.551
-339.504
-335.665
-331.123
-325.937
-320.158
-313.837
-307.007
-299.716
-292.013
-283.925
-275.493
-266.77
-257.822
-248.748
-239.635
-230.528
-221.453
-212.402
-203.342
-194.26
-185.154
-176.011
-166.838
-157.642
-148.432
-139.239
-130.092
-121.006
-111.989
-103.031
-94.12
-85.267
-76.49
-67.82
-59.297
-50.952
-42.812
-34.912
-27.274
-19.913
-12.841
-6.057
0.448
6.672
12.613
18.265
23.621
28.677
33.435
37.895
42.061
45.936
49.524
52.836
55.879
58.656
61.167
63.404
65.359
67.034
68.434
69.566
70.447
71.091
71.527
71.795
71.934
71.986
71.987
71.961
71.937
71.947
72.03
72.236
72.602
73.144
73.87
74.774
75.835
77.032
78.307
79.559
80.687
81.592
82.19
82.428
82.24
81.547
80.277
78.359
75.753
72.469
68.543
64.042
59.062
53.717
48.181
42.7
37.544
32.999
29.328
26.752
25.523
25.901
28.177
32.677
39.588
48.941
60.686
74.623
90.565
108.428
127.889
148.408
169.717
191.728
214.59
238.846
264.79
292.374
321.795
353.321
385.926
417.526
445.849
468.09
484.56
498.589
511.777
524.818
533.041
526.328
497.21
440.855
361.879
275.337
197.808
146.642
129.987
143.051
175.79
212.797
241.067
256.846
259.969
254.144
246.103
238.134
231.346
227.063
223.205
219.378
216.173
212.794
210.12
208.758
208.16
208.181
208.299
207.778
206.488
204.509
201.867
198.716
195.181
191.31
187.246
183.178
179.242
175.541
172.143
169.065
166.343
164.03
162.169
160.792
159.901
159.481
159.524
160.024
160.978
162.373
164.183
166.372
168.904
171.736
174.839
178.189
181.761
185.533
189.484
193.596
197.859
202.271
206.823
211.503
216.298
221.193
226.176
231.237
236.365
241.55
246.779
252.04
257.319
262.602
267.873
273.116
278.315
283.449
288.503
293.459
298.304
303.023
307.604
312.032
316.297
320.386
324.288
327.994
331.491
334.771
337.823
340.641
343.217
345.546
347.621
349.438
350.994
352.286
353.312
354.071
354.562
354.787
354.746
354.442
353.878
353.058
351.987
350.67
349.116
347.33
345.32
343.094
340.662
338.033
335.215
332.218
329.053
325.731
322.261
318.656
314.925
311.081
307.134
303.095
298.975
294.784
290.532
286.23
281.887
277.512
273.115
268.704
264.286
259.871
255.465
251.074
246.705
242.363
238.053
233.779
229.545
225.355
221.211
217.117
213.074
209.086
205.154
201.28
197.465
193.712
190.02
186.391
182.825
179.323
175.887
172.517
169.213
165.977
162.81
159.713
156.687
153.733
150.852
148.044
145.312
142.656
140.078
137.578
135.159
132.82
130.565
128.394
126.309
124.312
122.402
120.581
118.848
117.202
115.64
114.159
112.755
111.424
110.162
108.966
107.831
106.753
105.729
104.755
103.829
102.943
102.09
101.26
100.448
99.645
98.845
98.043
97.23
96.399
95.549
94.671
93.757
92.793
91.759
90.636
89.414
88.088
86.656
85.125
83.5
81.794
80.033
78.237
76.426
74.62
72.825
71.062
69.358
67.746
66.268
64.952
63.806
62.829
62.011
61.32
60.714
60.138
59.517
58.79
57.895
56.755
55.289
53.394
50.98
47.959
44.227
39.776
34.702
29.184
23.51
18.004
12.914
8.462
4.885
2.109
-0.198
-2.419
-5.082
-8.604
-13.108
-18.565
-24.833
-31.136
-36.179
-38.644
-37.118
-30.469
-18.033
0.667
25.954
57.295
93.224
132.037
171.778
210.562
246.952
279.358
305.751
324.888
335.695
337.317
330.717
316.515
296.595
274.345
249.648
221.964
190.041
150.165
104.614
59.453
19.186
-9.653
-25.392
-33.511
-37.32
-40.496
-46.287
-52.377
-57.614
-62.488
-66.256
-69.794
-73.857
-77.703
-80.841
-83.047
-84.009
-83.614
-82.022
-79.4
-76.021
-72.429
-69.152
-66.45
-64.477
-63.325
-62.969
-63.428
-64.699
-66.654
-69.138
-72.028
-75.222
-78.649
-82.25
-85.917
-89.499
-92.884
-95.99
-98.767
-101.199
-103.27
-104.961
-106.278
-107.251
-107.916
-108.309
-108.465
-108.406
-108.16
-107.77
-107.28
-106.744
-106.203
-105.682
-105.202
-104.771
-104.398
-104.087
-103.834
-103.629
-103.463
-103.333
-103.239
-103.185
-103.171
-103.195
-103.257
-103.357
-103.495
-103.678
-103.908
-104.192
-104.536
-104.95
-105.442
-106.025
-106.707
-107.499
-108.407
-109.441
-110.607
-111.915
-113.373
-114.987
-116.767
-118.72
-120.857
-123.185
-125.714
-128.45
-131.402
-134.576
-137.977
-141.611
-145.481
-149.59
-153.938
-158.528
-163.357
-168.423
-173.723
-179.252
-185.005
-190.974
-197.151
-203.527
-210.091
-216.831
-223.736
-230.791
-237.983
-245.295
-252.712
-260.216
-267.791
-275.417
-283.077
-290.749
-298.413
-306.049
-313.635
-321.15
-328.573
-335.882
-343.057
-350.076
-356.921
-363.572
-370.009
-376.216
-382.175
-387.871
-393.286
-398.409
-403.224
-407.719
-411.883
-415.705
-419.177
-422.289
-425.033
-427.404
-429.396
-431.002
-432.22
-433.046
-433.476
-433.511
-433.148
-432.388
-431.232
-429.681
-427.737
-425.403
-422.682
-419.578
-416.094
-412.235
-408.006
-403.41
-398.452
-393.138
-387.471
-381.459
-375.104
-368.414
-361.393
-354.046
-346.38
-338.398
-330.108
-321.514
-312.623
-303.44
-293.971
-284.224
-274.204
-263.919
-253.376
-242.583
-231.546
-220.274
-208.775
-197.055
-185.124
-172.988
-160.658
-148.141
-135.447
-122.585
-109.565
-96.398
-83.095
-69.666
-56.122
-42.476
-28.738
-14.922
-1.04
12.897
26.874
40.877
54.894
68.909
82.909
96.881
110.809
124.68
138.479
152.192
165.805
179.302
192.669
205.891
218.951
231.834
244.522
256.999
269.248
281.25
292.988
304.445
315.604
326.448
336.961
347.131
356.942
366.379
375.429
384.078
392.313
400.119
407.483
414.392
420.837
426.804
432.286
437.279
441.779
445.779
449.272
452.244
454.688
456.604
457.991
458.855
459.206
459.056
458.433
457.378
455.93
454.122
451.985
449.534
446.79
443.791
440.576
437.198
433.699
430.096
426.404
422.641
418.81
414.906
410.883
406.652
402.135
397.289
392.098
386.578
380.723
374.469
367.746
360.469
352.593
344.14
335.109
325.518
315.467
305.155
294.941
285.303
276.642
269.17
263.003
258.111
254.351
251.394
248.758
246.006
242.535
238.842
235.718
232.854
231.051
229.451
226.966
227.113
232.428
246.367
272.823
308.143
348.247
389.62
427.419
462.015
493.71
520.588
541.781
555.188
559.267
554.142
539.858
516.256
484.547
446.682
403.596
357.094
307.12
253.092
199.242
149.433
108.196
79.883
61.68
50.599
44.154
38.687
34.975
33.186
31.899
31.178
29.734
26.593
22.156
16.499
10.123
4.032
-1.177
-5.257
-8.154
-10.117
-11.505
-12.562
-13.57
-14.927
-16.895
-19.583
-23.012
-27.063
-31.575
-36.437
-41.524
-46.679
-51.784
-56.72
-61.351
-65.607
-69.437
-72.79
-75.648
-77.995
-79.819
-81.135
-81.983
-82.396
-82.418
-82.087
-81.432
-80.494
-79.321
-77.964
-76.485
-74.927
-73.323
-71.7
-70.079
-68.476
-66.907
-65.373
-63.869
-62.392
-60.942
-59.523
-58.141
-56.798
-55.495
-54.229
-53
-51.809
-50.657
-49.547
-48.48
-47.46
-46.491
-45.579
-44.731
-43.954
-43.25
-42.623
-42.075
-41.61
-41.229
-40.936
-40.73
-40.615
-40.592
-40.665
-40.835
-41.106
-41.48
-41.958
-42.543
-43.237
-44.04
-44.954
-45.979
-47.116
-48.365
-49.726
-51.199
-52.782
-54.474
-56.273
-58.176
-60.181
-62.282
-64.477
-66.758
-69.122
-71.56
-74.067
-76.635
-79.257
-81.923
-84.625
-87.355
-90.102
-92.858
-95.612
-98.353
-101.071
-103.757
-106.398
-108.984
-111.506
-113.952
-116.313
-118.578
-120.74
-122.787
-124.712
-126.507
-128.164
-129.675
-131.036
-132.239
-133.282
-134.159
-134.868
-135.408
-135.777
-135.976
-136.006
-135.868
-135.564
-135.1
-134.477
-133.702
-132.78
-131.716
-130.518
-129.192
-127.745
-126.187
-124.524
-122.766
-120.921
-118.998
-117.005
-114.952
-112.848
-110.702
-108.52
-106.313
-104.092
-101.865
-99.641
-97.426
-95.226
-93.05
-90.907
-88.797
-86.716
-84.666
-82.639
-80.648
-78.706
-76.804
-74.932
-73.117
-71.378
-69.73
-68.197
-66.757
-65.365
-64.044
-62.83
-61.613
-60.263
-58.852
-57.37
-55.788
-54.378
-52.395
-49.115
-45.563
-42.047
-40.451
-43.033
-47.287
-51.54
-53.306
-49.169
-42.146
-34.795
-28.867
-27.262
-27.906
-28.701
-29.182
-28.071
-26.112
-24.265
-22.351
-20.496
-18.64
-16.595
-14.492
-12.438
-10.406
-8.393
-6.418
-4.484
-2.59
-0.74
1.079
2.881
4.649
6.368
8.033
9.637
11.172
12.634
14.012
15.297
16.486
17.573
18.553
19.421
20.173
20.804
21.311
21.692
21.943
22.064
22.054
21.912
21.638
21.233
20.698
20.035
19.247
18.334
17.302
16.152
14.889
13.519
12.047
10.479
8.822
7.083
5.272
3.395
1.463
-0.515
-2.532
-4.577
-6.641
-8.715
-10.789
-12.854
-14.9
-16.919
-18.902
-20.839
-22.724
-24.547
-26.304
-27.986
-29.588
-31.104
-32.528
-33.856
-35.083
-36.205
-37.219
-38.121
-38.91
-39.586
-40.147
-40.595
-40.933
-41.163
-41.29
-41.319
-41.258
-41.113
-40.892
-40.603
-40.253
-39.851
-39.404
-38.918
-38.404
-37.867
-37.319
-36.767
-36.222
-35.694
-35.193
-34.727
-34.306
-33.936
-33.618
-33.357
-33.157
-33.025
-32.977
-33.019
-33.156
-33.391
-33.725
-34.154
-34.667
-35.24
-35.833
-36.415
-36.957
-37.439
-37.85
-38.175
-38.389
-38.463
-38.36
-38.057
-37.542
-36.802
-35.827
-34.614
-33.189
-31.62
-30.01
-28.447
-26.989
-25.656
-24.453
-23.416
-22.615
-22.125
-22.028
-22.351
-23.098
-24.314
-26.005
-28.086
-30.313
-32.23
-33.318
-33.19
-31.661
-28.666
-24.257
-18.608
-12.277
-6.085
-0.797
2.771
5.197
7.518
9.661
12.641
16.029
19.292
26.544
40.824
65.403
103.587
151.217
203.769
257.325
306.64
351.201
390.355
422.036
445.661
459.738
463.435
457.161
441.042
415.784
383.011
344.605
302.579
258.668
214.253
171.005
131.088
96.486
68.275
46.673
31.294
21.534
16.747
15.77
16.741
17.808
17.717
15.824
12.073
6.716
0.03
-7.403
-14.602
-20.728
-25.274
-28.033
-29.179
-29.072
-28.056
-26.565
-25.115
-24.042
-23.518
-23.626
-24.302
-25.456
-27.017
-28.867
-30.872
-32.955
-35.064
-37.151
-39.168
-41.015
-42.562
-43.719
-44.425
-44.646
-44.369
-43.579
-42.275
-40.482
-38.243
-35.598
-32.583
-29.223
-25.535
-21.556
-17.329
-12.909
-8.359
-3.725
0.955
5.651
10.338
14.998
19.616
24.188
28.717
33.203
37.638
42.015
46.322
50.553
54.704
58.769
62.748
66.634
70.424
74.113
77.696
81.167
84.521
87.749
90.843
93.795
96.602
99.258
101.762
104.112
106.305
108.341
110.219
111.94
113.504
114.911
116.161
117.254
118.191
118.975
119.606
120.086
120.418
120.605
120.648
120.553
120.32
119.956
119.463
118.845
118.108
117.254
116.29
115.22
114.049
112.783
111.428
109.988
108.471
106.883
105.228
103.513
101.745
99.928
98.067
96.169
94.24
92.283
90.305
88.31
86.303
84.289
82.271
80.255
78.242
76.237
74.242
72.261
70.295
68.347
66.42
64.515
62.635
60.78
58.951
57.15
55.377
53.632
51.914
50.224
48.561
46.924
45.311
43.72
42.151
40.601
39.067
37.548
36.041
34.542
33.049
31.56
30.07
28.577
27.078
25.569
24.048
22.51
20.953
19.371
17.763
16.122
14.446
12.729
10.969
9.159
7.296
5.376
3.395
1.348
-0.768
-2.958
-5.224
-7.569
-9.998
-12.511
-15.11
-17.799
-20.577
-23.444
-26.402
-29.449
-32.586
-35.809
-39.119
-42.511
-45.984
-49.534
-53.157
-56.849
-60.604
-64.416
-68.279
-72.186
-76.13
-80.103
-84.097
-88.104
-92.113
-96.118
-100.108
-104.075
-108.009
-111.901
-115.744
-119.527
-123.244
-126.886
-130.447
-133.92
-137.3
-140.582
-143.761
-146.835
-149.802
-152.66
-155.408
-158.048
-160.58
-163.008
-165.335
-167.566
-169.707
-171.764
-173.745
-175.658
-177.514
-179.321
-181.09
-182.833
-184.561
-186.286
-188.019
-189.774
-191.56
-193.392
-195.28
-197.236
-199.269
-201.392
-203.614
-205.943
-208.387
-210.954
-213.649
-216.477
-219.442
-222.545
-225.788
-229.169
-232.687
-236.339
-240.12
-244.023
-248.041
-252.165
-256.384
-260.689
-265.067
-269.504
-273.988
-278.503
-283.037
-287.574
-292.1
-296.599
-301.058
-305.462
-309.799
-314.057
-318.221
-322.282
-326.226
-330.042
-333.72
-337.249
-340.617
-343.816
-346.837
-349.675
-352.326
-354.789
-357.062
-359.143
-361.035
-362.741
-364.261
-365.596
-366.745
-367.712
-368.504
-369.137
-369.624
-369.972
-370.188
-370.274
-370.235
-370.069
-369.766
-369.304
-368.667
-367.841
-366.826
-365.634
-364.266
-362.72
-360.982
-359.029
-356.855
-354.473
-351.893
-349.121
-346.173
-343.084
-339.923
-336.792
-333.766
-330.871
-328.107
-325.478
-323.022
-320.809
-318.934
-317.448
-316.371
-315.785
-315.739
-316.199
-317.018
-317.843
-318.207
-317.781
-316.326
-313.467
-308.984
-303.112
-296.425
-289.758
-284.118
-279.363
-274.458
-270.243
-267.766
-268.517
-275.366
-285.747
-293.753
-293.866
-278.474
-246.175
-202.395
-152.222
-102.367
-56.003
-10.946
33.137
75.166
112.452
140.502
156.654
160.222
150.892
129.233
97.47
58.13
13.175
-37.922
-97.931
-167.333
-240.736
-306.066
-350.958
-369.497
-365.041
-349.262
-333.502
-323.656
-320.073
-318.781
-316.641
-313.086
-309.1
-306.614
-306.346
-307.826
-310.171
-312.043
-312.814
-312.534
-311.305
-309.499
-307.511
-305.56
-303.991
-303.222
-303.433
-304.664
-306.868
-309.84
-313.396
-317.401
-321.66
-325.984
-330.211
-334.165
-337.732
-340.862
-343.496
-345.602
-347.159
-348.135
-348.531
-348.377
-347.697
-346.524
-344.893
-342.829
-340.373
-337.573
-334.481
-331.154
-327.635
-323.95
-320.122
-316.166
-312.096
-307.923
-303.652
-299.276
-294.795
-290.213
-285.535
-280.774
-275.937
-271.028
-266.054
-261.021
-255.939
-250.821
-245.679
-240.528
-235.383
-230.262
-225.184
-220.169
-215.236
-210.402
-205.683
-201.094
-196.649
-192.364
-188.253
-184.328
-180.602
-177.087
-173.796
-170.741
-167.932
-165.379
-163.088
-161.067
-159.323
-157.858
-156.677
-155.781
-155.171
-154.846
-154.807
-155.05
-155.572
-156.367
-157.429
-158.751
-160.324
-162.139
-164.182
-166.442
-168.905
-171.557
-174.383
-177.368
-180.494
-183.746
-187.105
-190.554
-194.075
-197.649
-201.257
-204.88
-208.498
-212.093
-215.648
-219.142
-222.56
-225.884
-229.097
-232.184
-235.129
-237.919
-240.538
-242.973
-245.212
-247.243
-249.057
-250.644
-251.997
-253.107
-253.972
-254.585
-254.946
-255.051
-254.898
-254.482
-253.805
-252.865
-251.668
-250.217
-248.51
-246.555
-244.37
-241.973
-239.377
-236.594
-233.615
-230.438
-227.085
-223.547
-219.778
-215.76
-211.476
-206.921
-202.154
-197.228
-192.111
-186.893
-181.834
-176.973
-172.212
-167.613
-162.983
-158.679
-155.995
-154.703
-153.52
-150.301
-141.317
-126.124
-108.046
-92.091
-84.255
-86.714
-96.296
-106.434
-111.034
-106.932
-94.85
-80.179
-67.09
-57.791
-53.455
-51.345
-49.489
-47.384
-44.044
-40.256
-36.729
-33.227
-29.911
-26.718
-23.456
-20.261
-17.243
-14.395
-11.75
-9.332
-7.123
-5.11
-3.292
-1.648
-0.159
1.171
2.343
3.364
4.239
4.972
5.571
6.044
6.396
6.639
6.785
6.843
6.827
6.748
6.619
6.455
6.269
6.077
5.895
5.741
5.635
5.593
5.634
5.776
6.037
6.433
6.979
7.691
8.579
9.658
10.943
12.447
14.187
16.175
18.426
20.953
23.77
26.884
30.304
34.033
38.071
42.418
47.076
52.047
57.338
62.944
68.859
75.075
81.577
88.342
95.34
102.531
109.87
117.325
124.869
132.485
140.167
147.907
155.696
163.533
171.4
179.283
187.175
195.054
202.913
210.764
218.625
226.541
234.563
242.706
250.971
259.352
267.803
276.284
284.742
293.101
301.319
309.374
317.242
324.922
332.401
339.63
346.558
353.114
359.21
364.815
369.918
374.509
378.625
382.314
385.627
388.656
391.457
394.02
396.327
398.342
400.039
401.46
402.67
403.73
404.691
405.556
406.301
406.921
407.431
407.827
408.077
408.198
408.302
408.64
409.633
411.682
414.962
419.57
425.562
432.753
440.971
450.015
459.37
468.635
477.837
487.039
496.475
506.922
519.055
533.448
550.979
572.229
597.339
626.58
660.069
697.115
736.773
777.989
819.376
859.811
898.357
933.557
963.562
987.058
1003.329
1011.917
1012.679
1005.29
989.309
965.238
934.772
899.807
861.951
822.898
784.347
748.476
718.053
694.904
679.465
671.611
670.984
676.849
688.278
703.588
720.169
736.096
750.384
762.439
772.09
779.364
784.305
787.527
790.25
793.237
796.795
801.025
805.694
810.607
815.686
820.629
824.973
828.47
831.042
832.742
833.797
834.376
834.586
834.574
834.492
834.477
834.638
835.02
835.618
836.429
837.454
838.699
840.166
841.83
843.649
845.582
847.587
849.629
851.671
853.672
855.587
857.373
858.994
860.433
861.676
862.714
863.542
864.152
864.541
864.716
864.683
864.448
864.014
863.381
862.551
861.531
860.326
858.942
857.382
855.646
853.735
851.651
849.392
846.959
844.349
841.557
838.583
835.425
832.082
828.553
824.836
820.931
816.835
812.55
808.073
803.402
798.536
793.474
788.213
782.755
777.099
771.245
765.195
758.949
752.51
745.881
739.065
732.066
724.887
717.533
710.009
702.321
694.476
686.479
678.339
670.062
661.658
653.136
644.505
635.774
626.954
618.055
609.087
600.061
590.989
581.88
572.745
563.595
554.44
545.29
536.154
527.042
517.962
508.921
499.925
490.982
482.095
473.269
464.508
455.812
447.186
438.628
430.138
421.716
413.36
405.066
396.83
388.649
380.517
372.427
364.374
356.349
348.346
340.356
332.37
324.382
316.381
308.36
300.311
292.225
284.094
275.912
267.67
259.363
250.985
242.53
233.995
225.376
216.67
207.875
198.991
190.017
180.954
171.803
162.567
153.249
143.854
134.387
124.854
115.262
105.619
95.934
86.215
76.473
66.717
56.958
47.206
37.471
27.765
18.098
8.48
-1.078
-10.567
-19.975
-29.296
-38.518
-47.636
-56.64
-65.525
-74.283
-82.91
-91.401
-99.751
-107.956
-116.014
-123.924
-131.682
-139.29
-146.747
-154.056
-161.218
-168.236
-175.115
-181.859
-188.474
-194.966
-201.34
-207.603
-213.762
-219.825
-225.797
-231.686
-237.5
-243.246
-248.931
-254.561
-260.144
-265.686
-271.192
-276.669
-282.122
-287.555
-292.973
-298.381
-303.782
-309.181
-314.579
-319.981
-325.388
-330.802
-336.223
-341.652
-347.088
-352.53
-357.974
-363.418
-368.858
-374.289
-379.708
-385.108
-390.484
-395.831
-401.142
-406.411
-411.63
-416.793
-421.892
-426.92
-431.87
-436.734
-441.505
-446.176
-450.739
-455.189
-459.516
-463.715
-467.778
-471.698
-475.47
-479.086
-482.541
-485.828
-488.944
-491.884
-494.646
-497.227
-499.628
-501.849
-503.892
-505.762
-507.462
-508.997
-510.371
-511.592
-512.664
-513.593
-514.384
-515.045
-515.581
-516.004
-516.324
-516.551
-516.695
-516.767
-516.776
-516.733
-516.646
-516.52
-516.361
-516.177
-515.982
-515.797
-515.639
-515.522
-515.455
-515.444
-515.49
-515.591
-515.739
-515.909
-516.083
-516.24
-516.371
-516.474
-516.545
-516.565
-516.506
-516.328
-515.999
-515.509
-514.849
-514.014
-513.012
-511.866
-510.626
-509.372
-508.161
-507.036
-506.041
-505.21
-504.61
-504.334
-504.452
-505.071
-506.317
-508.199
-510.632
-513.44
-516.284
-518.83
-520.836
-521.938
-521.733
-520.193
-517.576
-514.464
-511.82
-510.341
-510.291
-512.027
-515.906
-521.594
-528.179
-534.014
-536.673
-534.239
-525.57
-509.396
-484.498
-450.546
-407.976
-358.469
-304.997
-250.154
-196.116
-145.729
-102.081
-67.793
-45.159
-35.201
-37.769
-53.013
-80.661
-119.099
-165.985
-218.574
-273.705
-328.79
-381.316
-428.044
-466.477
-496.104
-517.981
-533.441
-543.189
-545.3
-536.784
-518.061
-493.424
-471.184
-460.324
-464.645
-480.997
-500.859
-515.612
-520.543
-516.436
-508.185
-499.718
-492.737
-487.182
-481.572
-475.482
-469.588
-464.334
-460.068
-456.789
-454.123
-451.89
-450.036
-448.403
-446.846
-445.288
-443.671
-441.968
-440.143
-438.085
-435.685
-432.886
-429.654
-425.977
-421.852
-417.274
-412.268
-406.88
-401.159
-395.15
-388.888
-382.398
-375.72
-368.903
-362.002
-355.08
-348.183
-341.346
-334.601
-327.97
-321.473
-315.123
-308.922
-302.864
-296.951
-291.187
-285.579
-280.135
-274.861
-269.758
-264.829
-260.075
-255.5
-251.106
-246.898
-242.879
-239.054
-235.428
-232.01
-228.807
-225.826
-223.07
-220.543
-218.248
-216.186
-214.36
-212.768
-211.411
-210.289
-209.4
-208.743
-208.317
-208.119
-208.144
-208.39
-208.851
-209.52
-210.39
-211.454
-212.702
-214.125
-215.714
-217.456
-219.339
-221.351
-223.478
-225.704
-228.016
-230.397
-232.83
-235.296
-237.78
-240.26
-242.72
-245.14
-247.5
-249.781
-251.964
-254.029
-255.958
-257.732
-259.333
-260.745
-261.949
-262.93
-263.675
-264.168
-264.398
-264.354
-264.025
-263.404
-262.483
-261.258
-259.725
-257.881
-255.726
-253.261
-250.489
-247.415
-244.045
-240.386
-236.448
-232.242
-227.78
-223.075
-218.142
-212.998
-207.658
-202.14
-196.464
-190.647
-184.71
-178.67
-172.549
-166.364
-160.136
-153.883
-147.623
-141.374
-135.151
-128.971
-122.849
-116.799
-110.833
-104.963
-99.198
-93.549
-88.021
-82.623
-77.357
-72.227
-67.236
-62.383
-57.667
-53.087
-48.639
-44.318
-40.119
-36.034
-32.057
-28.178
-24.389
-20.68
-17.041
-13.461
-9.931
-6.44
-2.978
0.465
3.898
7.33
10.771
14.228
17.71
21.222
24.772
28.366
32.006
35.699
39.447
43.253
47.118
51.043
55.03
59.076
63.183
67.347
71.567
75.84
80.163
84.534
88.947
93.401
97.89
102.411
106.96
111.534
116.13
120.744
125.373
130.017
134.672
139.338
144.013
148.698
153.391
158.094
162.806
167.529
172.265
177.013
181.777
186.558
191.358
196.18
201.025
205.895
210.792
215.719
220.676
225.665
230.686
235.74
240.827
245.948
251.1
256.284
261.495
266.734
271.995
277.275
282.57
287.873
293.18
298.483
303.776
309.051
314.299
319.514
324.687
329.81
334.873
339.869
344.789
349.625
354.368
359.01
363.542
367.958
372.251
376.412
380.437
384.319
388.053
391.634
395.059
398.322
401.421
404.352
407.112
409.7
412.114
414.352
416.414
418.3
420.011
421.548
422.911
424.103
425.124
425.975
426.655
427.164
427.5
427.66
427.644
427.448
427.073
426.516
425.778
424.86
423.761
422.483
421.024
419.38
417.551
415.535
413.331
410.941
408.365
405.605
402.664
399.55
396.267
392.814
389.188
385.377
381.374
377.178
372.794
368.226
363.485
358.585
353.549
348.415
343.216
337.987
332.757
327.552
322.405
317.361
312.474
307.798
303.387
299.264
295.438
291.929
288.733
285.836
283.215
280.798
278.498
276.245
273.95
271.515
268.852
265.814
262.206
257.951
253.062
247.675
242.091
236.565
231.247
226.426
222.488
219.521
217.354
215.482
212.976
209.189
203.932
196.904
187.804
177.034
165.567
155.004
147.771
145.991
150.931
163.922
186.43
218.054
257.653
304.43
355.456
409.692
466.993
522.206
570.97
608.422
629.092
635.256
630.208
616.222
596.565
570.08
535.777
495.06
449.107
400.105
349.854
299.441
250.443
204.624
163.628
128.204
98.278
73.872
54.873
40.89
31.158
24.037
17.797
11.524
4.807
-2.532
-10.397
-18.719
-27.211
-35.045
-41.509
-46.298
-49.367
-51.008
-51.648
-51.634
-51.368
-51.357
-51.943
-53.31
-55.539
-58.54
-62.198
-66.419
-71.063
-75.99
-81.092
-86.282
-91.474
-96.578
-101.479
-106.05
-110.2
-113.875
-117.045
-119.703
-121.851
-123.513
-124.732
-125.566
-126.073
-126.299
-126.285
-126.07
-125.703
-125.238
-124.738
-124.263
-123.86
-123.564
-123.398
-123.382
-123.524
-123.829
-124.291
-124.898
-125.642
-126.519
-127.526
-128.662
-129.921
-131.297
-132.784
-134.372
-136.057
-137.83
-139.683
-141.613
-143.619
-145.691
-147.818
-149.997
-152.216
-154.478
-156.793
-159.143
-161.515
-163.931
-166.404
-168.948
-171.582
-174.285
-177.017
-179.799
-182.67
-185.528
-188.254
-190.921
-193.522
-196.038
-198.729
-200.899
-201.871
-202.618
-203.438
-206.118
-212.797
-221.112
-229.492
-235.592
-236.19
-234.141
-231.861
-231.009
-234.321
-239.841
-245.585
-251.112
-255.211
-258.582
-262.124
-265.664
-269.312
-273.004
-276.552
-280.071
-283.651
-287.255
-290.869
-294.498
-298.132
-301.756
-305.36
-308.919
-312.404
-315.815
-319.154
-322.409
-325.573
-328.638
-331.597
-334.444
-337.176
-339.786
-342.266
-344.613
-346.821
-348.886
-350.807
-352.58
-354.204
-355.677
-357
-358.172
-359.194
-360.068
-360.796
-361.379
-361.821
-362.126
-362.297
-362.339
-362.257
-362.056
-361.74
-361.317
-360.792
-360.172
-359.461
-358.667
-357.795
-356.853
-355.845
-354.778
-353.659
-352.492
-351.283
-350.038
-348.763
-347.461
-346.137
-344.796
-343.441
-342.075
-340.702
-339.323
-337.941
-336.557
-335.173
-333.79
-332.407
-331.026
-329.645
-328.263
-326.88
-325.493
-324.1
-322.7
-321.289
-319.865
-318.425
-316.965
-315.483
-313.975
-312.437
-310.867
-309.261
-307.615
-305.925
-304.187
-302.399
-300.556
-298.655
-296.692
-294.664
-292.568
-290.4
-288.159
-285.841
-283.445
-280.969
-278.411
-275.771
-273.049
-270.244
-267.359
-264.395
-261.354
-258.239
-255.054
-251.802
-248.489
-245.119
-241.698
-238.232
-234.728
-231.192
-227.633
-224.058
-220.475
-216.894
-213.323
-209.772
-206.252
-202.772
-199.344
-195.98
-192.69
-189.486
-186.381
-183.385
-180.511
-177.769
-175.171
-172.727
-170.445
-168.335
-166.404
-164.66
-163.108
-161.754
-160.601
-159.651
-158.907
-158.369
-158.038
-157.91
-157.984
-158.255
-158.719
-159.37
-160.202
-161.205
-162.371
-163.689
-165.148
-166.735
-168.437
-170.238
-172.123
-174.074
-176.073
-178.103
-180.144
-182.179
-184.189
-186.157
-188.068
-189.907
-191.656
-193.301
-194.828
-196.221
-197.468
-198.553
-199.461
-200.181
-200.701
-201.016
-201.118
-201.001
-200.658
-200.085
-199.276
-198.23
-196.945
-195.414
-193.635
-191.611
-189.351
-186.874
-184.197
-181.329
-178.279
-175.051
-171.645
-168.064
-164.299
-160.33
-156.138
-151.706
-147.026
-142.1
-136.921
-131.469
-125.724
-119.652
-113.238
-106.489
-99.416
-92.037
-84.392
-76.53
-68.527
-60.476
-52.469
-44.603
-36.973
-29.683
-22.85
-16.568
-10.952
-6.147
-2.169
1.064
3.722
6.127
8.565
11.222
14.415
18.444
23.277
28.734
34.368
39.446
43.601
46.699
48.496
49.122
49.254
49.882
52.598
59.276
71.102
89.059
114.196
146.85
186.696
232.651
282.599
334.156
385.416
434.257
478.137
514.821
542.479
560.062
567.355
564.403
551.09
528.446
499.249
465.353
428.105
387.545
341.299
291.614
243.936
203.375
177.805
168.157
169.641
179.125
188.391
193.212
194.159
189.295
182.352
176.356
171.59
170.423
171.48
173.27
175.955
178.733
182.294
187.31
193.299
199.915
206.545
212.515
217.675
221.965
225.295
227.691
229.181
229.836
229.795
229.216
228.209
226.837
225.184
223.34
221.435
219.628
218.034
216.726
215.748
215.126
214.88
215.025
215.55
216.417
217.588
219.03
220.712
222.618
224.715
226.959
229.299
231.68
234.063
236.421
238.739
241.004
243.21
245.353
247.44
249.486
251.501
253.488
255.449
257.383
259.293
261.184
263.059
264.922
266.774
268.615
270.444
272.258
274.054
275.824
277.563
279.262
280.913
282.51
284.048
285.521
286.924
288.252
289.497
290.657
291.724
292.694
293.559
294.314
294.952
295.47
295.862
296.123
296.244
296.223
296.054
295.734
295.262
294.63
293.834
292.879
291.77
290.51
289.108
287.558
285.849
283.995
282.01
279.873
277.569
275.09
272.418
269.581
266.627
263.542
260.296
257.002
253.793
250.607
247.461
244.391
241.145
238.443
236.985
235.801
234.605
231.603
224.644
216.135
207.682
201.671
201.377
203.924
206.876
208.565
206.23
201.86
197.468
193.507
191.204
189.853
188.544
187.452
186.461
185.63
185.143
184.875
184.725
184.721
184.862
185.131
185.521
186.033
186.659
187.407
188.287
189.279
190.364
191.53
192.765
194.055
195.386
196.743
198.108
199.467
200.806
202.11
203.364
204.554
205.664
206.681
207.59
208.38
209.038
209.551
209.911
210.106
210.128
209.969
209.621
209.08
208.34
207.397
206.248
204.891
203.324
201.549
199.564
197.373
194.979
192.383
189.592
186.611
183.446
180.105
176.595
172.926
169.106
165.146
161.057
156.849
152.534
148.122
143.626
139.056
134.426
129.745
125.025
120.278
115.512
110.74
105.972
101.216
96.481
91.777
87.11
82.488
77.918
73.406
68.956
64.575
60.267
56.036
51.885
47.819
43.838
39.944
36.14
32.426
28.803
25.269
21.825
18.469
15.202
12.021
8.927
5.916
2.99
0.146
-2.614
-5.293
-7.892
-10.415
-12.861
-15.232
-17.529
-19.753
-21.906
-23.987
-25.995
-27.927
-29.779
-31.551
-33.244
-34.857
-36.389
-37.84
-39.211
-40.503
-41.725
-42.877
-43.958
-44.964
-45.891
-46.745
-47.542
-48.292
-49
-49.674
-50.324
-50.965
-51.619
-52.295
-52.986
-53.688
-54.394
-55.109
-55.856
-56.65
-57.503
-58.418
-59.378
-60.384
-61.455
-62.592
-63.785
-65.017
-66.252
-67.488
-68.763
-70.094
-71.483
-72.92
-74.371
-75.82
-77.274
-78.738
-80.229
-81.744
-83.248
-84.736
-86.23
-87.757
-89.365
-91.073
-92.841
-94.674
-96.627
-98.759
-101.148
-103.832
-106.781
-109.975
-113.414
-117.125
-121.18
-125.62
-130.424
-135.565
-141.023
-146.717
-152.538
-158.251
-163.443
-167.702
-170.711
-172.255
-172.225
-170.773
-168.247
-165.049
-161.72
-158.738
-156.337
-154.566
-153.341
-152.012
-149.413
-144.415
-135.869
-122.825
-104.828
-81.589
-52.834
-19.035
18.51
58.326
98.738
138.171
175.527
209.586
238.69
261.528
277.369
285.803
286.796
280.339
266.103
244.16
215.541
181.721
144.367
105.169
65.685
27.692
-6.577
-35.137
-56.978
-71.865
-80.186
-82.665
-80.115
-73.765
-65.427
-56.869
-49.225
-43.055
-38.439
-35.209
-33.195
-31.997
-30.843
-29.055
-26.321
-22.622
-18.202
-13.385
-8.399
-3.517
0.87
4.508
7.289
9.174
10.269
10.716
10.601
10.064
9.284
8.339
7.3
6.403
5.846
5.599
5.715
6.232
6.891
8.463
11.671
15.434
19.403
21.613
19.731
16.287
12.951
12.221
17.534
25.766
34.276
41.259
43.744
43.836
43.666
43.705
45.263
47.599
49.749
51.908
53.955
55.955
58.11
60.299
62.424
64.526
66.615
68.679
70.723
72.755
74.777
76.804
78.854
80.91
82.955
84.987
87
88.986
90.941
92.853
94.711
96.508
98.235
99.882
101.439
102.893
104.232
105.446
106.524
107.454
108.227
108.832
109.26
109.502
109.548
109.392
109.026
108.442
107.636
106.603
105.339
103.841
102.107
100.137
97.931
95.491
92.819
89.919
86.796
83.457
79.907
76.156
72.214
68.089
63.793
59.339
54.739
50.006
45.154
40.196
35.146
30.019
24.828
19.586
14.308
9.006
3.693
-1.619
-6.916
-12.188
-17.425
-22.615
-27.749
-32.819
-37.817
-42.735
-47.567
-52.308
-56.951
-61.495
-65.934
-70.267
-74.493
-78.611
-82.622
-86.526
-90.325
-94.022
-97.621
-101.123
-104.534
-107.857
-111.096
-114.255
-117.338
-120.351
-123.297
-126.181
-129.006
-131.778
-134.5
-137.177
-139.811
-142.405
-144.963
-147.487
-149.98
-152.442
-154.877
-157.284
-159.665
-162.021
-164.351
-166.656
-168.934
-171.183
-173.403
-175.589
-177.74
-179.853
-181.924
-183.948
-185.924
-187.847
-189.713
-191.518
-193.258
-194.931
-196.53
-198.053
-199.496
-200.854
-202.124
-203.303
-204.386
-205.372
-206.256
-207.037
-207.711
-208.277
-208.732
-209.074
-209.301
-209.414
-209.409
-209.288
-209.049
-208.695
-208.225
-207.641
-206.945
-206.14
-205.227
-204.211
-203.093
-201.878
-200.568
-199.166
-197.677
-196.105
-194.453
-192.724
-190.924
-189.056
-187.124
-185.132
-183.085
-180.986
-178.84
-176.651
-174.422
-172.159
-169.864
-167.542
-165.197
-162.832
-160.451
-158.058
-155.655
-153.243
-150.827
-148.407
-145.986
-143.565
-141.146
-138.731
-136.319
-133.914
-131.515
-129.126
-126.747
-124.383
-122.035
-119.709
-117.408
-115.135
-112.896
-110.692
-108.528
-106.405
-104.327
-102.293
-100.308
-98.372
-96.492
-94.672
-92.916
-91.225
-89.602
-88.049
-86.57
-85.169
-83.845
-82.599
-81.435
-80.359
-79.388
-78.531
-77.789
-77.158
-76.627
-76.185
-75.82
-75.511
-75.231
-74.951
-74.642
-74.278
-73.848
-73.328
-72.685
-71.877
-70.849
-69.569
-68.034
-66.245
-64.214
-61.969
-59.538
-56.978
-54.366
-51.753
-49.195
-46.761
-44.517
-42.557
-40.969
-39.806
-39.151
-39.088
-39.592
-40.543
-41.696
-42.755
-43.573
-44.137
-44.409
-44.233
-43.501
-42.266
-40.863
-39.624
-38.43
-36.696
-33.663
-28.963
-22.525
-14.119
-3.128
11.183
28.964
49.611
72.167
96.275
122.244
150.278
180.037
210.656
241.49
272.373
303.108
332.718
359.244
380.498
394.81
401.145
398.567
386.238
364.005
332.681
294.245
251.412
206.74
162.624
121.64
86.091
57.449
36.38
22.57
14.895
12.18
13.047
15.634
18.277
19.859
19.699
17.728
14.343
9.894
4.89
0.17
-3.636
-6.185
-7.335
-7.299
-6.452
-5.077
-3.512
-2.168
-1.294
-1.029
-1.435
-2.426
-3.88
-5.7
-7.75
-9.893
-12.038
-14.099
-15.99
-17.631
-18.938
-19.845
-20.315
-20.329
-19.874
-18.944
-17.546
-15.709
-13.472
-10.88
-7.971
-4.776
-1.331
2.324
6.136
10.049
14.018
18.009
21.994
25.95
29.86
33.705
37.48
41.186
44.823
48.39
51.881
55.288
58.607
61.836
64.975
68.023
70.979
73.836
76.593
79.245
81.789
84.218
86.526
88.703
90.744
92.644
94.396
95.999
97.446
98.734
99.858
100.816
101.602
102.213
102.643
102.887
102.94
102.799
102.458
101.912
101.158
100.192
99.009
97.608
95.986
94.141
92.071
89.776
87.258
84.517
81.556
78.379
74.989
71.394
67.6
63.616
59.449
55.111
50.613
45.967
41.187
36.287
31.282
26.188
21.021
15.8
10.542
5.267
-0.007
-5.26
-10.473
-15.624
-20.694
-25.663
-30.511
-35.219
-39.767
-44.139
-48.315
-52.28
-56.019
-59.516
-62.759
-65.736
-68.436
-70.851
-72.974
-74.8
-76.325
-77.546
-78.465
-79.082
-79.401
-79.427
-79.165
-78.624
-77.812
-76.74
-75.42
-73.864
-72.086
-70.101
-67.925
-65.573
-63.063
-60.412
-57.639
-54.762
-51.799
-48.769
-45.689
-42.579
-39.456
-36.338
-33.242
-30.184
-27.178
-24.241
-21.384
-18.62
-15.961
-13.414
-10.99
-8.694
-6.534
-4.512
-2.633
-0.899
0.689
2.13
3.427
4.58
5.591
6.465
7.205
7.817
8.304
8.673
8.931
9.083
9.138
9.101
8.98
8.782
8.515
8.186
7.802
7.37
6.896
6.386
5.848
5.285
4.702
4.104
3.494
2.874
2.246
1.613
0.974
0.33
-0.319
-0.974
-1.634
-2.302
-2.979
-3.667
-4.366
-5.081
-5.812
-6.563
-7.337
-8.135
-8.961
-9.817
-10.703
-11.623
-12.576
-13.565
-14.589
-15.651
-16.75
-17.888
-19.064
-20.279
-21.534
-22.826
-24.154
-25.518
-26.914
-28.34
-29.792
-31.269
-32.765
-34.278
-35.806
-37.344
-38.889
-40.436
-41.981
-43.519
-45.045
-46.553
-48.036
-49.488
-50.905
-52.282
-53.617
-54.905
-56.146
-57.339
-58.486
-59.584
-60.633
-61.629
-62.569
-63.449
-64.266
-65.015
-65.694
-66.3
-66.833
-67.296
-67.695
-68.035
-68.32
-68.55
-68.721
-68.837
-68.906
-68.933
-68.931
-68.914
-68.904
-68.934
-69.044
-69.257
-69.593
-70.061
-70.653
-71.367
-72.198
-73.133
-74.171
-75.304
-76.516
-77.81
-79.182
-80.621
-82.104
-83.576
-84.969
-86.246
-87.377
-88.349
-89.173
-89.847
-90.387
-90.843
-91.248
-91.639
-92.052
-92.488
-92.941
-93.417
-93.931
-94.545
-95.343
-96.38
-97.714
-99.39
-101.437
-103.916
-106.836
-110.148
-113.83
-117.85
-122.2
-126.963
-132.188
-137.923
-144.296
-151.321
-158.892
-166.825
-174.738
-182.232
-189.078
-194.983
-199.499
-202.358
-203.664
-204.062
-204.504
-205.761
-207.543
-208.571
-209.13
-210.252
-213.332
-220.883
-230.618
-236.832
-234.536
-217.242
-183.83
-139.509
-88.813
-37.712
10.495
58.001
105.811
154.162
202.018
245.441
281.711
309.601
327.958
336.259
333.577
319.295
294.873
261.589
220.131
170.39
110.891
44.769
-20.67
-77.395
-116.795
-137.903
-146.236
-146.817
-145.924
-145.527
-143.295
-139.537
-134.389
-128.457
-124.226
-122.355
-122.331
-123.907
-126.003
-127.269
-127.21
-125.567
-122.222
-117.628
-112.278
-106.489
-100.751
-95.615
-91.349
-88.121
-85.991
-84.802
-84.412
-84.712
-85.525
-86.695
-88.113
-89.669
-91.261
-92.788
-94.12
-95.154
-95.828
-96.095
-95.932
-95.325
-94.267
-92.785
-90.924
-88.726
-86.234
-83.478
-80.484
-77.291
-73.948
-70.504
-67.018
-63.527
-60.058
-56.634
-53.271
-49.978
-46.761
-43.615
-40.528
-37.493
-34.51
-31.581
-28.71
-25.898
-23.142
-20.445
-17.805
-15.226
-12.713
-10.268
-7.897
-5.606
-3.405
-1.301
0.693
2.571
4.323
5.943
7.425
8.764
9.952
10.985
11.859
12.569
13.11
13.477
13.665
13.672
13.494
13.129
12.575
11.831
10.898
9.777
8.47
6.979
5.308
3.462
1.445
-0.735
-3.073
-5.559
-8.187
-10.947
-13.829
-16.822
-19.916
-23.098
-26.358
-29.682
-33.058
-36.473
-39.914
-43.367
-46.821
-50.263
-53.678
-57.056
-60.382
-63.646
-66.835
-69.939
-72.947
-75.849
-78.637
-81.303
-83.839
-86.239
-88.499
-90.614
-92.579
-94.393
-96.053
-97.559
-98.909
-100.104
-101.146
-102.036
-102.777
-103.372
-103.826
-104.142
-104.326
-104.381
-104.314
-104.129
-103.833
-103.43
-102.927
-102.328
-101.639
-100.867
-100.015
-99.088
-98.092
-97.029
-95.903
-94.717
-93.473
-92.173
-90.817
-89.405
-87.938
-86.418
-84.843
-83.214
-81.527
-79.778
-77.968
-76.096
-74.151
-72.124
-70.006
-67.785
-65.462
-63.047
-60.524
-57.877
-55.128
-52.291
-49.377
-46.407
-43.356
-40.18
-36.897
-33.545
-30.016
-26.182
-22.117
-17.814
-13.249
-8.691
-3.417
3.28
10.386
17.593
23.04
24.503
24.432
24.462
27.022
35.457
46.794
58.511
68.877
75.035
79.01
82.852
87.008
92.721
99.25
105.644
112.068
118.389
124.657
131.047
137.424
143.673
149.817
155.849
161.748
167.503
173.113
178.57
183.883
189.064
194.098
198.968
203.671
208.2
212.551
216.723
220.709
224.504
228.109
231.524
234.749
237.786
240.637
243.305
245.794
248.108
250.254
252.238
254.068
255.751
257.296
258.711
260.005
261.188
262.268
263.254
264.157
264.985
265.749
266.458
267.123
267.752
268.355
268.941
269.519
270.099
270.688
271.295
271.927
272.592
273.298
274.051
274.857
275.72
276.646
277.637
278.698
279.83
281.034
282.31
283.66
285.084
286.582
288.153
289.797
291.513
293.303
295.165
297.099
299.106
301.183
303.329
305.544
307.824
310.168
312.57
315.03
317.545
320.114
322.736
325.41
328.135
330.91
333.736
336.615
339.548
342.532
345.569
348.659
351.811
355.035
358.336
361.71
365.15
368.646
372.184
375.749
379.312
382.836
386.285
389.632
392.858
395.956
398.907
401.691
404.278
406.642
408.776
410.686
412.385
413.887
415.223
416.441
417.622
418.863
420.24
421.798
423.552
425.503
427.666
430.052
432.666
435.492
438.491
441.61
444.811
448.034
451.189
454.148
456.723
458.723
460.005
460.466
460.048
458.704
456.377
453.038
448.691
443.361
437.095
429.918
421.817
412.814
402.98
392.429
381.342
369.888
358.198
346.386
334.534
322.716
310.995
299.382
287.865
276.405
264.936
253.548
242.465
231.96
222.395
214.058
207.08
201.701
198.242
196.708
196.889
198.251
199.918
201.415
202.674
203.551
203.911
203.935
204.117
205.732
210.749
220.495
235.681
256.877
284.513
318.903
359.935
406.359
455.736
505.74
554.651
601.024
643.038
678.65
705.207
719.599
721.722
713.049
695.474
673.936
649.311
617.472
575.763
518.195
443.947
363.604
285.995
221.625
177.448
147.159
125.569
108.551
92.036
79.264
71.913
68.293
67.415
66.695
64.412
60.865
56.05
50.046
43.302
36.408
30.28
25.551
22.286
20.203
18.856
17.868
16.96
15.748
13.755
10.689
6.446
1.07
-5.238
-12.302
-19.997
-28.157
-36.619
-45.248
-53.884
-62.395
-70.675
-78.599
-86.078
-93.06
-99.494
-105.362
-110.675
-115.448
-119.721
-123.548
-126.972
-130.036
-132.78
-135.239
-137.458
-139.491
-141.387
-143.198
-144.96
-146.694
-148.423
-150.155
-151.893
-153.634
-155.37
-157.085
-158.772
-160.427
-162.047
-163.632
-165.178
-166.683
-168.142
-169.553
-170.913
-172.223
-173.482
-174.693
-175.858
-176.979
-178.063
-179.116
-180.143
-181.146
-182.13
-183.096
-184.047
-184.987
-185.918
-186.842
-187.761
-188.678
-189.597
-190.52
-191.45
-192.388
-193.336
-194.296
-195.267
-196.249
-197.244
-198.25
-199.267
-200.293
-201.327
-202.367
-203.413
-204.463
-205.513
-206.563
-207.609
-208.651
-209.683
-210.705
-211.712
-212.702
-213.672
-214.619
-215.541
-216.433
-217.294
-218.12
-218.911
-219.662
-220.373
-221.042
-221.668
-222.25
-222.79
-223.286
-223.741
-224.156
-224.534
-224.878
-225.19
-225.474
-225.734
-225.974
-226.198
-226.411
-226.616
-226.82
-227.027
-227.243
-227.471
-227.717
-227.985
-228.281
-228.61
-228.974
-229.379
-229.829
-230.327
-230.877
-231.482
-232.145
-232.868
-233.654
-234.502
-235.415
-236.391
-237.431
-238.535
-239.7
-240.925
-242.208
-243.548
-244.941
-246.385
-247.877
-249.415
-250.994
-252.612
-254.266
-255.952
-257.668
-259.411
-261.178
-262.966
-264.775
-266.601
-268.443
-270.3
-272.17
-274.052
-275.945
-277.849
-279.764
-281.689
-283.626
-285.575
-287.537
-289.513
-291.505
-293.515
-295.543
-297.593
-299.665
-301.76
-303.882
-306.03
-308.206
-310.412
-312.648
-314.915
-317.214
-319.544
-321.905
-324.296
-326.715
-329.162
-331.633
-334.126
-336.639
-339.167
-341.707
-344.255
-346.805
-349.353
-351.893
-354.419
-356.923
-359.4
-361.842
-364.243
-366.593
-368.887
-371.117
-373.276
-375.357
-377.352
-379.255
-381.06
-382.759
-384.347
-385.817
-387.164
-388.383
-389.469
-390.417
-391.224
-391.886
-392.4
-392.762
-392.971
-393.024
-392.919
-392.657
-392.235
-391.654
-390.917
-390.023
-388.976
-387.779
-386.434
-384.945
-383.317
-381.553
-379.657
-377.636
-375.492
-373.23
-370.857
-368.376
-365.794
-363.115
-360.345
-357.488
-354.55
-351.535
-348.45
-345.298
-342.085
-338.815
-335.494
-332.128
-328.723
-325.282
-321.812
-318.316
-314.798
-311.262
-307.708
-304.139
-300.556
-296.959
-293.351
-289.733
-286.106
-282.472
-278.834
-275.193
-271.55
-267.908
-264.267
-260.63
-257.001
-253.379
-249.765
-246.16
-242.564
-238.975
-235.397
-231.825
-228.258
-224.691
-221.118
-217.542
-213.97
-210.405
-206.853
-203.318
-199.809
-196.351
-192.978
-189.722
-186.616
-183.686
-180.956
-178.464
-176.249
-174.347
-172.785
-171.554
-170.637
-170.024
-169.72
-169.738
-170.059
-170.606
-171.266
-171.923
-172.498
-172.962
-173.252
-173.235
-172.836
-172.038
-170.973
-169.984
-169.252
-168.733
-168.361
-168.031
-167.617
-167.102
-166.197
-164.234
-160.98
-156.653
-151.752
-147.18
-143.751
-141.993
-142.758
-147.186
-155.811
-168.646
-185.161
-204.158
-224.673
-246.041
-267.295
-287.334
-305.445
-321.206
-334.709
-346.59
-357.152
-366.389
-374.447
-381.516
-387.681
-393.043
-397.329
-399.623
-399.278
-396.096
-389.709
-380.644
-369.616
-355.962
-340.119
-321.7
-299.314
-274.915
-249.782
-226.789
-211.844
-205.959
-207.82
-211.953
-206.307
-182.547
-137.612
-74.398
-3.761
64.82
126.453
179.813
227.464
270.178
306.172
333.192
348.573
351.487
342.305
321.289
289.848
250.271
204.891
156.252
106.663
57.827
12.009
-27.903
-60.118
-83.979
-99.457
-107.306
-108.476
-103.863
-95.255
-85.251
-75.735
-67.826
-62.139
-58.58
-56.925
-56.983
-57.987
-58.709
-58.343
-56.52
-53.192
-48.745
-43.573
-37.954
-32.335
-27.261
-23.056
-19.876
-17.74
-16.481
-15.95
-16.049
-16.632
-17.549
-18.7
-19.977
-21.28
-22.528
-23.605
-24.409
-24.883
-24.977
-24.667
-23.946
-22.818
-21.305
-19.447
-17.285
-14.847
-12.161
-9.243
-6.123
-2.839
0.567
4.045
7.56
11.093
14.623
18.142
21.644
25.132
28.615
32.112
35.633
39.187
42.775
46.399
50.063
53.77
57.526
61.334
65.195
69.109
73.074
77.089
81.147
85.241
89.362
93.497
97.636
101.768
105.883
109.97
114.019
118.017
121.953
125.816
129.594
133.273
136.842
140.285
143.592
146.749
149.743
152.564
155.2
157.641
159.876
161.897
163.696
165.264
166.596
167.685
168.528
169.121
169.461
169.548
169.381
168.962
168.294
167.38
166.225
164.836
163.219
161.383
159.338
157.092
154.657
152.044
149.265
146.333
143.26
140.061
136.748
133.336
129.839
126.27
122.643
118.972
115.271
111.551
107.827
104.111
100.415
96.752
93.132
89.567
86.069
82.646
79.31
76.068
72.929
69.901
66.991
64.206
61.55
59.03
56.649
54.412
52.322
50.382
48.594
46.96
45.483
44.162
42.998
41.992
41.144
40.453
39.918
39.538
39.312
39.238
39.312
39.533
39.895
40.396
41.029
41.791
42.674
43.673
44.78
45.988
47.291
48.679
50.145
51.681
53.278
54.927
56.619
58.346
60.099
61.868
63.644
65.418
67.182
68.927
70.644
72.325
73.962
75.546
77.071
78.528
79.912
81.215
82.434
83.563
84.598
85.536
86.377
87.118
87.76
88.304
88.751
89.103
89.363
89.536
89.625
89.635
89.573
89.444
89.255
89.012
88.722
88.394
88.032
87.646
87.24
86.823
86.4
85.979
85.564
85.163
84.78
84.42
84.089
83.791
83.529
83.305
83.121
82.978
82.875
82.812
82.787
82.796
82.837
82.906
82.997
83.106
83.227
83.353
83.477
83.592
83.691
83.766
83.811
83.817
83.779
83.692
83.551
83.351
83.089
82.76
82.364
81.899
81.364
80.757
80.079
79.328
78.506
77.616
76.661
75.642
74.565
73.435
72.265
71.062
69.839
68.602
67.361
66.127
64.91
63.724
62.575
61.473
60.424
59.441
58.541
57.739
57.043
56.451
55.954
55.546
55.223
54.983
54.814
54.702
54.641
54.633
54.699
54.856
55.109
55.451
55.862
56.319
56.82
57.374
57.994
58.69
59.465
60.327
61.296
62.395
63.623
64.947
66.304
67.631
68.901
70.103
71.254
72.377
73.473
74.53
75.539
76.489
77.373
78.183
78.889
79.464
79.91
80.256
80.574
80.924
81.317
81.736
82.124
82.405
82.54
82.494
82.223
81.687
80.816
79.537
77.832
75.652
72.917
69.639
65.871
61.761
57.627
53.757
50.402
47.933
46.643
46.525
47.354
48.613
49.65
50.122
49.888
48.724
46.596
43.963
41.841
41.845
45.665
54.428
68.885
89.819
117.908
153.247
194.982
241.239
289.827
338.904
386.851
431.646
470.77
501.911
523.576
535.293
537.072
528.791
510.181
481.772
445.318
403.1
357.406
310.118
262.936
217.989
177.943
144.958
119.952
102.939
93.332
90.448
93.502
101.105
111.122
121.365
130.419
137.649
142.944
146.356
147.974
148.155
147.706
147.637
148.529
150.479
153.319
156.754
160.55
164.523
168.346
171.603
174.069
175.695
176.557
176.847
176.71
176.231
175.54
174.774
174.055
173.525
173.265
173.299
173.657
174.351
175.388
176.784
178.529
180.582
182.908
185.465
188.216
191.139
194.203
197.367
200.588
203.814
207.007
210.147
213.217
216.204
219.101
221.9
224.604
227.227
229.781
232.273
234.709
237.088
239.415
241.699
243.946
246.162
248.352
250.517
252.658
254.777
256.872
258.941
260.978
262.975
264.927
266.828
268.67
270.448
272.155
273.782
275.322
276.768
278.112
279.343
280.452
281.429
282.266
282.951
283.476
283.832
284.008
283.997
283.79
283.38
282.76
281.923
280.863
279.577
278.061
276.312
274.329
272.113
269.663
266.985
264.081
260.958
257.623
254.085
250.354
246.443
242.364
238.131
233.759
229.265
224.665
219.977
215.219
210.411
205.57
200.718
195.873
191.056
186.286
181.584
176.968
172.458
168.072
163.829
159.747
155.842
152.132
148.632
145.356
142.318
139.532
137.007
134.754
132.781
131.095
129.7
128.601
127.8
127.296
127.089
127.177
127.556
128.222
129.167
130.386
131.869
133.609
135.594
137.814
140.257
142.911
145.764
148.801
152.009
155.374
158.88
162.512
166.254
170.089
174.002
177.974
181.989
186.03
190.08
194.124
198.144
202.126
206.056
209.919
213.702
217.394
220.982
224.456
227.808
231.027
234.107
237.041
239.822
242.447
244.91
247.209
249.341
251.304
253.096
254.718
256.17
257.452
258.568
259.521
260.314
260.953
261.443
261.792
262.008
262.098
262.072
261.938
261.708
261.39
260.996
260.535
260.017
259.454
258.855
258.229
257.587
256.937
256.287
255.647
255.024
254.425
253.858
253.33
252.848
252.417
252.045
251.736
251.496
251.33
251.242
251.236
251.315
251.481
251.736
252.08
252.515
253.038
253.65
254.347
255.129
255.991
256.931
257.945
259.029
260.178
261.389
262.658
263.98
265.35
266.765
268.22
269.711
271.233
272.782
274.354
275.943
277.546
279.156
280.768
282.378
283.98
285.567
287.136
288.68
290.195
291.676
293.118
294.518
295.871
297.175
298.427
299.625
300.767
301.85
302.874
303.836
304.737
305.575
306.349
307.059
307.702
308.28
308.79
309.234
309.609
309.914
310.151
310.316
310.412
310.437
310.392
310.276
310.091
309.836
309.512
309.12
308.658
308.125
307.521
306.842
306.086
305.248
304.323
303.304
302.185
300.959
299.618
298.153
296.556
294.818
292.93
290.884
288.67
286.279
283.697
280.915
277.921
274.706
271.256
267.559
263.604
259.379
254.881
250.1
245.029
239.656
233.968
227.956
221.618
214.953
207.962
200.654
193.04
185.144
177.003
168.652
160.127
151.456
142.663
133.77
124.807
115.808
106.809
97.846
88.946
80.136
71.44
62.866
54.4
46.014
37.649
29.237
20.724
12.062
3.227
-5.78
-14.961
-24.333
-33.92
-43.768
-53.912
-64.357
-75.132
-86.251
-97.612
-109.023
-120.171
-130.612
-139.979
-148.001
-154.369
-158.86
-161.522
-162.609
-162.634
-162.264
-161.892
-161.681
-161.854
-162.482
-163.217
-163.249
-161.244
-155.783
-145.972
-131.304
-111.232
-85.278
-53.44
-16.518
23.759
65.384
106.755
146.59
183.246
214.58
238.523
253.552
258.985
254.64
240.091
214.666
178.597
133.335
80.934
23.821
-35.7
-95.593
-153.255
-205.518
-250.202
-286.362
-313.862
-333.477
-346.265
-353.261
-356.313
-357.994
-360.206
-364.091
-370.217
-378.389
-388.3
-399.721
-411.9
-423.688
-434.329
-443.444
-451.006
-457.416
-463.028
-468.077
-472.948
-478.096
-483.801
-490.204
-497.294
-504.896
-512.849
-521.031
-529.295
-537.498
-545.515
-553.233
-560.536
-567.326
-573.527
-579.077
-583.94
-588.1
-591.547
-594.285
-596.345
-597.772
-598.614
-598.92
-598.731
-598.078
-597.007
-595.571
-593.827
-591.841
-589.662
-587.329
-584.876
-582.332
-579.719
-577.058
-574.357
-571.617
-568.843
-566.044
-563.232
-560.423
-557.628
-554.854
-552.112
-549.408
-546.753
-544.158
-541.634
-539.189
-536.836
-534.587
-532.456
-530.457
-528.602
-526.904
-525.371
-524.014
-522.84
-521.858
-521.077
-520.501
-520.14
-519.998
-520.083
-520.4
-520.956
-521.755
-522.802
-524.1
-525.652
-527.46
-529.524
-531.846
-534.424
-537.256
-540.34
-543.672
-547.248
-551.062
-555.107
-559.375
-563.86
-568.55
-573.436
-578.506
-583.748
-589.15
-594.697
-600.375
-606.169
-612.063
-618.043
-624.091
-630.192
-636.326
-642.478
-648.629
-654.762
-660.858
-666.9
-672.87
-678.751
-684.527
-690.181
-695.698
-701.063
-706.264
-711.286
-716.117
-720.747
-725.166
-729.364
-733.335
-737.071
-740.568
-743.82
-746.827
-749.586
-752.096
-754.359
-756.376
-758.15
-759.684
-760.985
-762.058
-762.909
-763.547
-763.981
-764.219
-764.273
-764.153
-763.87
-763.437
-762.865
-762.167
-761.355
-760.441
-759.439
-758.361
-757.218
-756.023
-754.788
-753.522
-752.236
-750.941
-749.643
-748.353
-747.076
-745.819
-744.586
-743.383
-742.212
-741.075
-739.975
-738.91
-737.881
-736.884
-735.918
-734.978
-734.058
-733.154
-732.257
-731.36
-730.455
-729.531
-728.58
-727.59
-726.549
-725.447
-724.271
-723.008
-721.647
-720.172
-718.573
-716.836
-714.949
-712.899
-710.676
-708.267
-705.662
-702.852
-699.827
-696.579
-693.1
-689.385
-685.426
-681.221
-676.765
-672.056
-667.092
-661.875
-656.404
-650.682
-644.712
-638.498
-632.045
-625.359
-618.448
-611.319
-603.982
-596.446
-588.722
-580.822
-572.757
-564.541
-556.187
-547.708
-539.118
-530.432
-521.664
-512.827
-503.936
-495.005
-486.047
-477.076
-468.105
-459.146
-450.212
-441.312
-432.459
-423.662
-414.93
-406.272
-397.695
-389.207
-380.813
-372.52
-364.332
-356.254
-348.288
-340.439
-332.708
-325.097
-317.607
-310.238
-302.99
-295.861
-288.851
-281.957
-275.178
-268.509
-261.95
-255.495
-249.143
-242.889
-236.73
-230.662
-224.682
-218.786
-212.97
-207.23
-201.565
-195.971
-190.444
-184.983
-179.585
-174.249
-168.972
-163.753
-158.59
-153.481
-148.424
-143.416
-138.456
-133.541
-128.669
-123.836
-119.041
-114.28
-109.551
-104.851
-100.176
-95.524
-90.89
-86.272
-81.664
-77.063
-72.465
-67.864
-63.259
-58.643
-54.014
-49.365
-44.694
-39.994
-35.263
-30.493
-25.682
-20.821
-15.908
-10.937
-5.904
-0.806
4.359
9.592
14.89
20.253
25.676
31.155
36.686
42.265
47.887
53.547
59.242
64.964
70.706
76.461
82.219
87.969
93.703
99.412
105.084
110.713
116.289
121.803
127.25
132.618
137.891
143.048
148.064
152.916
157.59
162.075
166.357
170.434
174.305
177.984
181.499
184.876
188.137
191.305
194.398
197.447
200.5
203.608
206.824
210.192
213.721
217.416
221.293
225.347
229.564
233.886
238.194
242.366
246.302
249.899
253.068
255.668
257.475
258.339
258.234
257.256
255.688
253.784
251.634
249.407
247.431
245.93
244.966
244.254
242.951
240.362
236.373
231.035
224.458
216.931
208.932
201.635
197.234
197.882
204.911
219.171
241.143
271.262
309.957
356.757
409.825
466.726
525.342
583.935
641.005
694.503
741.63
779.873
807.701
824.59
830.29
824.338
806.152
776.025
735.768
688.006
635.4
580.037
523.82
469.072
418.704
375.33
340.187
313.3
294.061
281.839
275.992
275.397
278.069
281.696
284.719
286.435
286.753
285.813
283.725
280.77
277.712
275.606
275.134
276.502
279.523
283.774
288.862
294.421
299.994
305.058
309.272
312.499
314.753
316.175
316.913
317.076
316.796
316.231
315.492
314.672
313.877
313.191
312.716
312.578
312.855
313.599
314.848
316.609
318.869
321.608
324.786
328.347
332.252
336.458
340.929
345.631
350.521
355.549
360.664
365.816
370.963
376.078
381.14
386.136
391.06
395.913
400.698
405.427
410.104
414.732
419.309
423.834
428.306
432.724
437.09
441.404
445.664
449.866
454.006
458.077
462.074
465.987
469.807
473.522
477.122
480.598
483.94
487.141
490.191
493.082
495.802
498.344
500.701
502.868
504.84
506.609
508.164
509.501
510.617
511.505
512.147
512.516
512.586
512.351
511.823
511.009
509.904
508.52
506.912
505.166
503.353
501.49
499.542
497.481
495.325
493.013
490.285
486.935
482.958
478.449
473.697
468.114
460.248
449.755
437.568
427.521
425.269
432.518
447.036
461.656
466.122
456.638
434.878
407.341
385.128
373.122
371.556
378.297
385.932
390.614
391.405
387.252
381.152
375.109
369.403
365.15
361.698
358.322
355.257
352.35
349.669
347.404
345.406
343.532
341.753
340.03
338.342
336.698
335.101
333.539
332.018
330.549
329.114
327.698
326.29
324.875
323.438
321.97
320.456
318.882
317.239
315.518
313.709
311.803
309.791
307.665
305.418
303.044
300.537
297.893
295.109
292.183
289.114
285.903
282.551
279.061
275.436
271.681
267.801
263.802
259.691
255.475
251.162
246.762
242.284
237.739
233.137
228.49
223.809
219.106
214.393
209.682
204.984
200.311
195.675
191.088
186.561
182.107
177.735
173.458
169.286
165.228
161.294
157.491
153.828
150.309
146.942
143.731
140.68
137.792
135.069
132.513
130.124
127.903
125.848
123.958
122.228
120.656
119.237
117.965
116.836
115.842
114.978
114.237
113.611
113.094
112.676
112.351
112.109
111.942
111.841
111.796
111.8
111.843
111.917
112.015
112.129
112.252
112.378
112.499
112.611
112.708
112.786
112.84
112.865
112.86
112.824
112.757
112.659
112.529
112.365
112.173
111.959
111.716
111.442
111.134
110.788
110.416
110.034
109.636
109.215
108.803
108.425
108.104
107.868
107.702
107.567
107.491
107.521
107.547
107.444
107.292
107.085
106.803
106.726
106.099
104.18
102.027
99.959
99.914
104.212
110.28
116.401
120.021
117.632
112.328
106.73
102.634
103.008
105.718
108.602
111.173
112.111
112.171
112.326
112.381
112.456
112.478
112.242
111.871
111.464
110.98
110.408
109.756
109.015
108.175
107.229
106.155
104.928
103.558
102.051
100.407
98.626
96.712
94.665
92.495
90.208
87.81
85.306
82.705
80.015
77.248
74.412
71.521
68.585
65.617
62.63
59.638
56.653
53.688
50.757
47.873
45.049
42.296
39.627
37.052
34.583
32.231
30.004
27.913
25.964
24.164
22.52
21.035
19.711
18.548
17.544
16.696
16
15.449
15.039
14.76
14.605
14.566
14.636
14.803
15.056
15.379
15.755
16.173
16.616
17.071
17.524
17.96
18.368
18.743
19.074
19.349
19.549
19.649
19.628
19.477
19.185
18.748
18.168
17.444
16.591
15.637
14.604
13.513
12.377
11.196
9.988
8.788
7.638
6.592
5.686
4.936
4.358
3.963
3.745
3.684
3.734
3.827
3.91
3.932
3.848
3.61
3.131
2.33
1.088
-0.764
-3.268
-6.341
-9.817
-13.374
-16.7
-19.615
-21.795
-22.799
-22.573
-21.348
-19.702
-18.646
-18.862
-20.521
-23.878
-29.194
-36.104
-43.752
-50.517
-53.952
-52.189
-44.182
-28.913
-5.35
26.869
67.402
114.874
166.62
220.241
274.036
325.864
372.834
412.287
442.023
460.248
466.342
459.687
438.971
404.924
360.738
309.269
252.77
191.426
123.479
50.694
-20.364
-79.75
-119.003
-135.662
-132.732
-119.664
-104.124
-89.22
-78.976
-72.415
-69.287
-72.552
-79.579
-88.723
-98.489
-104.794
-107.972
-109.05
-108.15
-106.665
-104.406
-100.951
-96.888
-92.66
-88.917
-86.135
-84.301
-83.299
-82.987
-83.243
-83.957
-84.974
-86.158
-87.421
-88.694
-89.912
-90.991
-91.805
-92.265
-92.32
-91.934
-91.096
-89.804
-88.066
-85.915
-83.397
-80.557
-77.434
-74.058
-70.455
-66.665
-62.732
-58.71
-54.655
-50.609
-46.599
-42.649
-38.774
-34.98
-31.27
-27.635
-24.061
-20.54
-17.066
-13.639
-10.259
-6.923
-3.627
-0.367
2.863
6.063
9.236
12.382
15.5
18.587
21.639
24.65
27.614
30.523
33.374
36.161
38.88
41.528
44.099
46.588
48.993
51.307
53.526
55.644
57.655
59.554
61.336
62.995
64.529
65.933
67.204
68.339
69.338
70.197
70.918
71.501
71.947
72.257
72.435
72.484
72.408
72.212
71.902
71.484
70.964
70.349
69.649
68.87
68.023
67.115
66.156
65.156
64.123
63.068
61.999
60.927
59.862
58.811
57.785
56.791
55.838
54.933
54.083
53.295
52.573
51.921
51.345
50.847
50.429
50.093
49.84
49.67
49.582
49.577
49.652
49.805
50.033
50.333
50.702
51.133
51.624
52.168
52.761
53.397
54.07
54.775
55.506
56.256
57.021
57.793
58.566
59.336
60.095
60.838
61.561
62.256
62.921
63.55
64.138
64.683
65.178
65.622
66.009
66.336
66.599
66.796
66.922
66.976
66.953
66.852
66.669
66.403
66.051
65.612
65.082
64.459
63.742
62.929
62.017
61.005
59.89
58.673
57.35
55.922
54.386
52.742
50.99
49.127
47.154
45.071
42.876
40.57
38.153
35.626
32.991
30.249
27.401
24.45
21.398
18.247
15.001
11.662
8.235
4.723
1.129
-2.541
-6.283
-10.091
-13.961
-17.886
-21.86
-25.878
-29.934
-34.02
-38.131
-42.259
-46.398
-50.542
-54.683
-58.815
-62.932
-67.027
-71.093
-75.126
-79.12
-83.07
-86.971
-90.819
-94.611
-98.342
-102.011
-105.614
-109.151
-112.62
-116.019
-119.349
-122.613
-125.81
-128.941
-132.004
-135.001
-137.935
-140.812
-143.64
-146.418
-149.156
-151.876
-154.59
-157.321
-160.086
-162.866
-165.651
-168.463
-171.28
-174.062
-176.807
-179.481
-182.065
-184.65
-187.314
-190.038
-192.946
-196.284
-200.039
-204.13
-208.668
-213.312
-218.283
-225.035
-233.31
-241.708
-248.269
-248.148
-240
-228.561
-219.51
-221.454
-239.394
-266.976
-295.204
-314.611
-317.727
-308.877
-296.839
-288.132
-288.55
-296.861
-307.612
-318.11
-326.269
-331.893
-336.936
-341.925
-346.736
-351.446
-355.742
-359.541
-363.075
-366.413
-369.53
-372.433
-375.111
-377.505
-379.564
-381.272
-382.612
-383.545
-384.044
-384.204
-384.138
-383.775
-383.119
-382.198
-380.761
-379.511
-379.128
-378.654
-377.807
-374.826
-367.6
-358.5
-349.112
-341.789
-339.76
-340.21
-340.757
-339.774
-334.561
-327.087
-319.352
-311.819
-305.717
-300.375
-294.921
-289.552
-284.18
-278.889
-273.882
-269.057
-264.337
-259.769
-255.379
-251.181
-247.197
-243.451
-239.958
-236.744
-233.831
-231.207
-228.849
-226.733
-224.831
-223.119
-221.579
-220.199
-218.959
-217.838
-216.81
-215.831
-214.862
-213.874
-212.835
-211.721
-210.529
-209.265
-207.962
-206.691
-205.509
-204.44
-203.514
-202.747
-202.159
-201.815
-201.785
-202.112
-202.863
-204.166
-206.062
-208.497
-211.302
-214.114
-216.541
-218.322
-219.157
-218.571
-216.367
-212.83
-208.476
-204.165
-200.833
-198.063
-195.506
-194.437
-194.822
-197.567
-203.288
-207.412
-206.643
-197.659
-176.121
-143.769
-102.757
-55.195
-5.353
45.987
98.536
151.016
202.196
248.626
287.096
315.713
333.238
339.677
334.677
318.167
292.189
259.248
221.096
177.455
126.054
66.707
4.284
-51.364
-90.494
-108.781
-109.244
-101.561
-94.978
-94.248
-99.912
-108.488
-116.944
-124.61
-131.883
-139.849
-148.806
-157.875
-165.83
-171.722
-175.193
-176.26
-175.158
-172.257
-167.939
-162.717
-157.193
-151.763
-146.675
-142.082
-138.002
-134.459
-131.465
-128.962
-126.869
-125.128
-123.684
-122.51
-121.593
-120.882
-120.304
-119.772
-119.19
-118.466
-117.507
-116.242
-114.623
-112.618
-110.227
-107.459
-104.328
-100.861
-97.093
-93.057
-88.786
-84.315
-79.674
-74.901
-70.043
-65.145
-60.254
-55.408
-50.628
-45.934
-41.334
-36.834
-32.434
-28.134
-23.922
-19.795
-15.75
-11.786
-7.908
-4.118
-0.413
3.206
6.74
10.185
13.539
16.795
19.949
22.992
25.918
28.716
31.374
33.881
36.23
38.411
40.416
42.237
43.867
45.295
46.517
47.523
48.307
48.859
49.173
49.241
49.057
48.615
47.91
46.938
45.696
44.181
42.392
40.331
37.997
35.395
32.527
29.399
26.018
22.39
18.526
14.435
10.129
5.619
0.919
-3.957
-8.994
-14.175
-19.486
-24.908
-30.426
-36.021
-41.676
-47.372
-53.093
-58.82
-64.536
-70.223
-75.863
-81.441
-86.94
-92.345
-97.641
-102.813
-107.849
-112.737
-117.466
-122.025
-126.407
-130.603
-134.606
-138.412
-142.017
-145.416
-148.608
-151.593
-154.37
-156.94
-159.305
-161.468
-163.434
-165.205
-166.787
-168.186
-169.406
-170.455
-171.338
-172.063
-172.635
-173.063
-173.353
-173.512
-173.547
-173.467
-173.278
-172.988
-172.602
-172.129
-171.574
-170.944
-170.245
-169.481
-168.659
-167.783
-166.859
-165.889
-164.878
-163.83
-162.747
-161.633
-160.491
-159.321
-158.127
-156.911
-155.673
-154.417
-153.143
-151.854
-150.552
-149.238
-147.915
-146.584
-145.247
-143.905
-142.561
-141.216
-139.87
-138.525
-137.183
-135.845
-134.512
-133.184
-131.864
-130.552
-129.249
-127.955
-126.671
-125.397
-124.134
-122.883
-121.643
-120.416
-119.2
-117.997
-116.807
-115.628
-114.462
-113.305
-112.158
-111.019
-109.885
-108.756
-107.627
-106.498
-105.366
-104.228
-103.081
-101.925
-100.755
-99.57
-98.368
-97.145
-95.9
-94.631
-93.335
-92.013
-90.662
-89.282
-87.872
-86.431
-84.96
-83.457
-81.924
-80.359
-78.763
-77.137
-75.482
-73.798
-72.086
-70.35
-68.591
-66.812
-65.015
-63.204
-61.382
-59.553
-57.72
-55.888
-54.06
-52.24
-50.432
-48.641
-46.87
-45.123
-43.403
-41.713
-40.058
-38.438
-36.856
-35.315
-33.816
-32.359
-30.947
-29.581
-28.261
-26.987
-25.76
-24.579
-23.446
-22.358
-21.317
-20.317
-19.36
-18.447
-17.58
-16.756
-15.976
-15.232
-14.525
-13.859
-13.228
-12.615
-12.005
-11.383
-10.746
-10.114
-9.49
-8.849
-8.204
-7.609
-7.103
-6.729
-6.494
-6.329
-6.212
-6.216
-6.268
-6.11
-5.68
-5.059
-4.212
-3.413
-2.162
1.163
6.254
11.608
14.81
11.254
1.121
-10.937
-20.32
-20.49
-10.894
2.259
14.158
19.655
17.739
13.047
8.466
5.924
6.061
6.993
7.844
8.687
9.454
10.426
11.679
12.954
14.173
15.383
16.584
17.767
18.939
20.107
21.286
22.502
23.747
24.976
26.153
27.258
28.276
29.206
30.056
30.832
31.546
32.209
32.82
33.377
33.884
34.343
34.753
35.132
35.512
35.937
36.464
37.138
37.988
39.026
40.247
41.628
43.13
44.719
46.368
48.059
49.777
51.517
53.289
55.083
56.87
58.604
60.206
61.594
62.701
63.463
63.819
63.747
63.268
62.395
61.141
59.511
57.477
54.99
52.006
48.45
44.217
39.334
33.958
28.38
23.053
18.38
14.646
12.196
11.398
12.314
14.717
17.967
20.999
23.153
24.256
24.15
22.792
20.555
18.215
17.43
20.646
29.544
45.049
67.853
98.278
136.496
182.235
233.915
288.863
344.804
400.035
453.071
502.425
546.106
581.224
605.854
620.297
624.28
619.206
606.423
582.967
548.484
502.271
442.786
375.896
306.98
240.698
184.024
137.448
98.899
69.014
47.551
36.543
40.121
55.762
76.477
94.996
102.944
99.377
90.029
79.694
73.717
73.197
74.738
76.895
78.478
79.257
80.854
83.552
86.909
90.643
94.018
96.499
98.047
98.632
98.274
97.192
95.574
93.551
91.28
88.89
86.472
84.156
82.087
80.375
79.107
78.344
78.12
78.465
79.398
80.91
82.974
85.542
88.566
92.008
95.832
100.01
104.502
109.259
114.229
119.355
124.599
129.935
135.343
140.806
146.314
151.861
157.454
163.104
168.815
174.587
180.415
186.294
192.218
198.185
204.192
210.232
216.298
222.38
228.467
234.547
240.605
246.625
252.586
258.469
264.253
269.92
275.45
280.824
286.025
291.032
295.827
300.39
304.705
308.75
312.509
315.962
319.092
321.884
324.321
326.391
328.081
329.38
330.279
330.771
330.851
330.514
329.758
328.583
326.991
324.984
322.567
319.748
316.536
312.94
308.974
304.652
299.991
295.007
289.72
284.151
278.321
272.254
265.974
259.504
252.871
246.1
239.218
232.252
225.228
218.173
211.111
204.07
197.072
190.141
183.3
176.569
169.969
163.517
157.232
151.129
145.223
139.526
134.05
128.805
123.799
119.04
114.531
110.276
106.278
102.536
99.049
95.814
92.827
90.083
87.574
85.292
83.229
81.374
79.716
78.243
76.943
75.803
74.81
73.951
73.211
72.577
72.037
71.576
71.182
70.842
70.543
70.272
70.018
69.769
69.515
69.244
68.948
68.615
68.238
67.81
67.322
66.768
66.142
65.441
64.659
63.793
62.842
61.803
60.677
59.462
58.162
56.775
55.307
53.758
52.132
50.433
48.665
46.833
44.942
42.997
41.004
38.967
36.895
34.792
32.665
30.521
28.367
26.208
24.051
21.902
19.769
17.656
15.57
13.515
11.498
9.523
7.594
5.715
3.889
2.119
0.407
-1.245
-2.836
-4.366
-5.835
-7.242
-8.59
-9.879
-11.112
-12.289
-13.414
-14.491
-15.521
-16.51
-17.46
-18.377
-19.264
-20.125
-20.966
-21.791
-22.604
-23.409
-24.211
-25.013
-25.82
-26.635
-27.461
-28.301
-29.157
-30.032
-30.927
-31.843
-32.78
-33.74
-34.721
-35.724
-36.746
-37.787
-38.844
-39.916
-41
-42.092
-43.191
-44.292
-45.391
-46.485
-47.568
-48.638
-49.689
-50.716
-51.716
-52.684
-53.617
-54.509
-55.359
-56.161
-56.914
-57.614
-58.259
-58.847
-59.377
-59.848
-60.258
-60.608
-60.897
-61.126
-61.296
-61.408
-61.463
-61.464
-61.411
-61.308
-61.157
-60.961
-60.723
-60.447
-60.137
-59.796
-59.429
-59.04
-58.634
-58.215
-57.789
-57.358
-56.929
-56.506
-56.092
-55.693
-55.312
-54.952
-54.619
-54.314
-54.042
-53.804
-53.603
-53.442
-53.322
-53.245
-53.212
-53.226
-53.287
-53.397
-53.557
-53.767
-54.028
-54.341
-54.704
-55.119
-55.584
-56.098
-56.661
-57.271
-57.926
-58.624
-59.363
-60.142
-60.957
-61.807
-62.689
-63.6
-64.537
-65.499
-66.483
-67.486
-68.506
-69.543
-70.598
-71.669
-72.757
-73.863
-74.989
-76.134
-77.299
-78.485
-79.688
-80.907
-82.141
-83.388
-84.648
-85.923
-87.214
-88.52
-89.841
-91.177
-92.528
-93.89
-95.257
-96.624
-97.984
-99.339
-100.697
-102.063
-103.44
-104.826
-106.219
-107.609
-108.985
-110.325
-111.599
-112.776
-113.825
-114.725
-115.463
-116.025
-116.389
-116.522
-116.381
-115.925
-115.129
-113.973
-112.447
-110.559
-108.325
-105.797
-103.052
-100.149
-97.156
-94.134
-91.133
-88.234
-85.526
-83.095
-81.067
-79.6
-78.772
-78.559
-78.812
-79.218
-79.442
-79.201
-78.148
-75.882
-72.191
-67.213
-61.459
-55.825
-51.212
-48.12
-46.871
-47.824
-50.902
-55.328
-59.668
-61.663
-58.856
-49.567
-32.506
-6.276
29.845
75.654
130.115
190.736
254.289
318.186
379.821
435.896
483.437
519.862
542.977
552.151
547.544
528.804
496.137
450.984
395.283
331.772
263.657
193.265
123.119
56.774
-2.428
-51.856
-89.798
-116.065
-131.129
-135.154
-129.394
-116.484
-99.633
-82.389
-67.363
-55.715
-48.369
-46.415
-49.979
-58.245
-69.54
-81.396
-92.199
-101.404
-108.496
-112.939
-114.585
-113.593
-110.759
-107.502
-104.684
-102.586
-101.417
-101.244
-102.089
-103.976
-106.628
-109.484
-112.171
-114.482
-116.274
-117.544
-118.263
-118.358
-117.844
-116.782
-115.224
-113.225
-110.826
-108.032
-104.87
-101.382
-97.61
-93.615
-89.455
-85.188
-80.872
-76.552
-72.258
-68.021
-63.861
-59.795
-55.834
-51.979
-48.224
-44.57
-41.02
-37.574
-34.236
-30.999
-27.857
-24.806
-21.842
-18.963
-16.17
-13.461
-10.835
-8.294
-5.841
-3.478
-1.212
0.957
3.024
4.99
6.851
8.606
10.251
11.783
13.201
14.5
15.675
16.722
17.634
18.406
19.032
19.507
19.824
19.977
19.962
19.773
19.406
18.857
18.12
17.195
16.078
14.767
13.262
11.563
9.671
7.588
5.317
2.861
0.227
-2.582
-5.557
-8.693
-11.981
-15.412
-18.976
-22.664
-26.463
-30.363
-34.349
-38.41
-42.531
-46.698
-50.896
-55.11
-59.326
-63.53
-67.706
-71.84
-75.919
-79.928
-83.857
-87.691
-91.42
-95.034
-98.522
-101.876
-105.089
-108.153
-111.062
-113.813
-116.401
-118.823
-121.076
-123.16
-125.074
-126.818
-128.392
-129.798
-131.038
-132.115
-133.03
-133.789
-134.395
-134.852
-135.165
-135.339
-135.38
-135.291
-135.08
-134.752
-134.312
-133.766
-133.12
-132.379
-131.548
-130.632
-129.636
-128.563
-127.419
-126.207
-124.93
-123.591
-122.193
-120.738
-119.23
-117.669
-116.059
-114.402
-112.699
-110.953
-109.167
-107.343
-105.484
-103.594
-101.675
-99.731
-97.766
-95.783
-93.786
-91.778
-89.763
-87.746
-85.731
-83.724
-81.731
-79.756
-77.801
-75.869
-73.969
-72.094
-70.243
-68.419
-66.619
-64.844
-63.114
-61.441
-59.828
-58.321
-56.943
-55.685
-54.57
-53.606
-52.736
-51.922
-51.16
-50.293
-49.189
-47.998
-46.73
-45.279
-43.993
-42.437
-39.968
-37.496
-35.359
-35.077
-39.431
-47.784
-58.105
-66.324
-66.38
-56.073
-38.241
-19.727
-8.483
-9.784
-21.994
-37.771
-50.55
-55.292
-51.961
-45.53
-39.266
-35.271
-33.994
-33.458
-32.819
-32.115
-31.27
-30.616
-30.231
-29.827
-29.321
-28.748
-28.081
-27.322
-26.494
-25.611
-24.705
-23.828
-22.998
-22.2
-21.433
-20.701
-20.008
-19.358
-18.752
-18.186
-17.661
-17.182
-16.752
-16.372
-16.045
-15.769
-15.545
-15.373
-15.254
-15.187
-15.17
-15.202
-15.282
-15.408
-15.579
-15.793
-16.049
-16.346
-16.685
-17.067
-17.491
-17.959
-18.471
-19.028
-19.629
-20.273
-20.962
-21.696
-22.479
-23.313
-24.201
-25.147
-26.157
-27.237
-28.39
-29.615
-30.911
-32.276
-33.708
-35.209
-36.781
-38.425
-40.147
-41.946
-43.817
-45.758
-47.762
-49.816
-51.9
-53.989
-56.053
-58.074
-60.038
-61.935
-63.761
-65.496
-67.113
-68.585
-69.887
-71.014
-71.982
-72.794
-73.428
-73.871
-74.133
-74.26
-74.355
-74.46
-74.506
-74.477
-74.462
-74.686
-75.45
-76.912
-78.939
-81.364
-84.264
-87.594
-91.031
-93.869
-95.037
-93.825
-90.338
-85.005
-77.855
-69.03
-59.273
-50.045
-43.362
-40.775
-41.587
-43.551
-46.618
-51.308
-58.796
-71.631
-85.99
-94.684
-92.003
-70.633
-30.132
22.674
81.878
139.902
192.419
241.059
286.7
329.54
367.986
398.366
417.649
424.029
418.715
404.011
382.698
359.311
334.134
304.694
268.588
220.925
163.225
103.091
47.336
3.807
-25.321
-44.118
-55.359
-61.291
-62.858
-59.09
-50.955
-41.108
-31.427
-23.126
-16.703
-11.967
-8.776
-7.077
-6.231
-4.982
-2.534
1.36
6.653
12.898
19.732
26.99
34.309
41.177
47.284
52.486
56.78
60.37
63.419
66.017
68.299
70.383
72.373
74.39
76.534
78.878
81.486
84.392
87.616
91.174
95.065
99.266
103.742
108.436
113.294
118.272
123.329
128.436
133.552
138.63
143.621
148.475
153.156
157.644
161.921
165.976
169.804
173.41
176.806
180.011
183.045
185.917
188.64
191.221
193.673
196.011
198.246
200.394
202.466
204.472
206.423
208.327
210.192
212.024
213.825
215.597
217.341
219.059
220.752
222.422
224.067
225.687
227.279
228.841
230.368
231.854
233.291
234.671
235.984
237.221
238.37
239.42
240.358
241.173
241.852
242.383
242.753
242.949
242.96
242.772
242.376
241.759
240.911
239.822
238.484
236.888
235.029
232.901
230.499
227.821
224.865
221.632
218.122
214.337
210.282
205.962
201.383
196.554
191.484
186.184
180.667
174.947
169.037
162.954
156.714
150.333
143.829
137.22
130.523
123.759
116.946
110.103
103.249
96.405
89.589
82.82
76.117
69.498
62.981
56.583
50.32
44.209
38.264
32.5
26.931
21.569
16.427
11.515
6.843
2.419
-1.749
-5.654
-9.293
-12.66
-15.752
-18.568
-21.106
-23.366
-25.349
-27.055
-28.488
-29.649
-30.544
-31.176
-31.552
-31.676
-31.555
-31.197
-30.608
-29.797
-28.772
-27.542
-26.116
-24.503
-22.714
-20.759
-18.649
-16.394
-14.005
-11.494
-8.872
-6.148
-3.335
-0.442
2.519
5.54
8.608
11.715
14.85
18.004
21.168
24.332
27.487
30.625
33.738
36.816
39.853
42.839
45.767
48.63
51.42
54.13
56.753
59.283
61.713
64.039
66.253
68.353
70.333
72.189
73.918
75.517
76.983
78.314
79.508
80.562
81.478
82.252
82.885
83.377
83.728
83.939
84.009
83.941
83.736
83.396
82.923
82.32
81.59
80.737
79.765
78.678
77.481
76.179
74.778
73.284
71.703
70.04
68.302
66.496
64.628
62.705
60.732
58.717
56.666
54.584
52.477
50.35
48.209
46.059
43.906
41.753
39.606
37.469
35.348
33.246
31.169
29.119
27.101
25.118
23.174
21.27
19.41
17.596
15.829
14.113
12.447
10.834
9.274
7.767
6.315
4.916
3.571
2.278
1.037
-0.152
-1.291
-2.378
-3.415
-4.403
-5.341
-6.23
-7.072
-7.867
-8.618
-9.328
-9.998
-10.635
-11.241
-11.823
-12.385
-12.933
-13.473
-14.011
-14.551
-15.096
-15.653
-16.226
-16.822
-17.447
-18.108
-18.812
-19.565
-20.379
-21.259
-22.215
-23.252
-24.372
-25.577
-26.874
-28.274
-29.792
-31.441
-33.224
-35.145
-37.204
-39.397
-41.713
-44.126
-46.59
-49.061
-51.502
-53.882
-56.181
-58.379
-60.44
-62.325
-63.989
-65.399
-66.54
-67.401
-67.976
-68.271
-68.315
-68.182
-68.005
-67.911
-68.008
-68.375
-69.046
-70.074
-71.547
-73.555
-76.191
-79.517
-83.508
-88.146
-93.45
-99.334
-105.628
-112.016
-117.917
-122.79
-126.337
-128.315
-128.575
-127.173
-124.065
-119.379
-113.745
-107.726
-101.542
-95.231
-88.34
-79.994
-69.645
-56.649
-39.849
-18.138
9.408
43.336
83.181
127.658
175.561
225.484
275.511
323.303
366.016
400.952
426.267
440.978
444.399
435.995
415.648
384.276
344.008
297.468
247.344
195.954
145.391
98.085
56.364
21.545
-6.114
-27.126
-42.643
-53.737
-61.458
-67.419
-73.192
-79.754
-87.632
-96.756
-106.547
-116.523
-126.161
-134.661
-141.472
-146.361
-149.246
-150.401
-150.311
-149.402
-148.191
-147.229
-146.838
-147.2
-148.41
-150.426
-153.196
-156.675
-160.743
-165.264
-170.124
-175.213
-180.453
-185.758
-190.996
-196.013
-200.655
-204.797
-208.37
-211.331
-213.648
-215.304
-216.299
-216.645
-216.378
-215.546
-214.186
-212.337
-210.035
-207.318
-204.232
-200.85
-197.246
-193.448
-189.469
-185.32
-180.998
-176.537
-171.987
-167.33
-162.523
-157.669
-152.897
-148.146
-143.436
-138.802
-133.994
-129.716
-126.655
-123.856
-121.041
-116.454
-107.986
-98.007
-88.103
-80.627
-78.808
-79.831
-81.312
-81.623
-78.061
-72.585
-67.184
-62.311
-59.181
-57.109
-55.214
-53.679
-52.402
-51.456
-51.034
-51.024
-51.335
-52.002
-53.034
-54.426
-56.181
-58.302
-60.79
-63.669
-66.97
-70.693
-74.83
-79.362
-84.257
-89.503
-95.077
-100.91
-106.925
-113.057
-119.253
-125.517
-131.899
-138.363
-144.936
-151.828
-159.163
-166.897
-174.973
-183.168
-191.749
-201.843
-214.051
-227.529
-239.142
-244.622
-241.233
-230.556
-220.227
-218.093
-229.413
-253.892
-281.451
-302.972
-312.861
-309.304
-300.131
-291.946
-287.28
-287.075
-287.989
-288.511
-290.593
-297.474
-309.802
-323.983
-334.936
-336.175
-327.238
-314.01
-301.474
-294.281
-292.018
-289.641
-285.226
-280.494
-280.097
-288.204
-304.015
-320.488
-327.905
-321.403
-301.641
-275.323
-253.399
-241.277
-239.996
-247.369
-255.936
-261.64
-263.167
-259.495
-253.739
-247.946
-242.469
-238.42
-235.106
-231.818
-228.819
-225.967
-223.344
-221.154
-219.259
-217.53
-215.954
-214.503
-213.164
-211.958
-210.901
-209.993
-209.25
-208.692
-208.313
-208.103
-208.062
-208.181
-208.451
-208.867
-209.419
-210.096
-210.891
-211.794
-212.795
-213.884
-215.05
-216.279
-217.561
-218.882
-220.231
-221.594
-222.959
-224.313
-225.645
-226.943
-228.195
-229.389
-230.517
-231.566
-232.529
-233.394
-234.155
-234.801
-235.328
-235.726
-235.992
-236.12
-236.106
-235.946
-235.64
-235.185
-234.58
-233.826
-232.923
-231.872
-230.677
-229.341
-227.866
-226.258
-224.522
-222.663
-220.687
-218.602
-216.412
-214.125
-211.747
-209.285
-206.745
-204.134
-201.457
-198.72
-195.93
-193.091
-190.21
-187.29
-184.337
-181.355
-178.346
-175.313
-172.261
-169.19
-166.102
-162.999
-159.883
-156.753
-153.611
-150.456
-147.287
-144.104
-140.906
-137.692
-134.458
-131.204
-127.928
-124.628
-121.303
-117.952
-114.573
-111.167
-107.732
-104.269
-100.778
-97.259
-93.714
-90.143
-86.548
-82.932
-79.298
-75.648
-71.987
-68.317
-64.643
-60.97
-57.301
-53.643
-49.999
-46.374
-42.776
-39.21
-35.682
-32.2
-28.77
-25.401
-22.101
-18.879
-15.744
-12.703
-9.766
-6.94
-4.233
-1.651
0.801
3.118
5.296
7.331
9.217
10.951
12.529
13.947
15.201
16.291
17.214
17.972
18.572
19.019
19.317
19.47
19.476
19.334
19.049
18.628
18.08
17.42
16.665
15.847
15.01
14.193
13.434
12.764
12.2
11.769
11.494
11.401
11.536
11.934
12.622
13.633
14.983
16.669
18.681
20.97
23.449
26.044
28.689
31.333
33.963
36.55
39.048
41.406
43.532
45.346
46.774
47.707
48.115
48.068
47.749
47.555
47.939
49.243
51.84
56.067
61.989
69.58
78.296
87.012
95.01
101.755
107.422
113.275
119.377
125.287
130.329
132.531
134.075
140.382
156.867
190.719
242.356
305.208
372.975
437.808
496.293
550.862
601.975
648.738
689.222
719.711
738.114
744.355
738.331
719.679
688.49
645.945
593.995
535.081
471.994
407.284
343.711
284.917
234.404
193.257
161.581
140.248
128.511
127.195
136.95
152.294
168.562
181.058
184.919
182.983
178.195
172.759
170.353
169.91
170.523
172.534
174.873
178.216
183.128
188.949
195.411
201.9
207.613
212.352
216.095
218.829
220.738
221.996
222.715
223.055
223.163
223.125
223.045
223.034
223.185
223.615
224.415
225.631
227.304
229.45
232.053
235.093
238.528
242.296
246.348
250.636
255.12
259.766
264.526
269.345
274.167
278.933
283.598
288.132
292.512
296.728
300.778
304.667
308.405
312.01
315.495
318.877
322.159
325.331
328.391
331.334
334.167
336.92
339.602
342.197
344.724
347.233
349.762
352.346
354.989
357.625
360.225
362.843
365.403
367.653
369.545
371.155
372.436
373.626
374.266
372.881
369.799
366.393
364.882
369.439
379.808
391.776
401.002
401.353
392.523
380.169
368.643
362.935
363.158
364.384
364.979
363.454
361.057
361.654
363.666
365.467
364.778
358.125
348.301
337.964
328.85
323.666
320.479
317.333
313.796
308.669
302.65
296.621
290.42
284.203
277.937
271.462
264.922
258.435
251.994
245.622
239.354
233.209
227.199
221.345
215.647
210.101
204.731
199.558
194.593
189.853
185.344
181.067
177.033
173.263
169.771
166.568
163.654
161.003
158.611
156.494
154.629
152.956
151.43
149.995
148.638
147.412
146.316
145.267
144.329
143.732
143.498
143.544
143.885
144.222
145.092
148.003
152.497
157.204
159.7
155.605
145.475
133.604
124.375
124.005
132.463
143.939
153.97
157.607
154.315
148.452
142.587
138.598
136.908
135.725
134.318
132.727
130.907
129.138
127.47
125.67
123.681
121.549
119.273
116.852
114.302
111.642
108.904
106.14
103.368
100.578
97.776
94.972
92.174
89.392
86.635
83.903
81.204
78.546
75.938
73.384
70.891
68.464
66.105
63.819
61.609
59.477
57.425
55.454
53.564
51.756
50.029
48.382
46.812
45.317
43.894
42.539
41.248
40.017
38.839
37.709
36.621
35.569
34.545
33.543
32.555
31.573
30.59
29.598
28.588
27.553
26.484
25.374
24.214
22.996
21.713
20.356
18.919
17.393
15.773
14.051
12.221
10.278
8.216
6.03
3.716
1.269
-1.314
-4.035
-6.897
-9.902
-13.051
-16.344
-19.781
-23.362
-27.086
-30.95
-34.953
-39.093
-43.365
-47.768
-52.296
-56.946
-61.712
-66.59
-71.572
-76.654
-81.829
-87.089
-92.427
-97.837
-103.311
-108.84
-114.418
-120.037
-125.688
-131.363
-137.054
-142.752
-148.45
-154.137
-159.807
-165.449
-171.056
-176.619
-182.131
-187.582
-192.964
-198.269
-203.488
-208.612
-213.632
-218.539
-223.325
-227.98
-232.496
-236.865
-241.079
-245.13
-249.011
-252.714
-256.232
-259.558
-262.685
-265.608
-268.32
-270.813
-273.085
-275.133
-276.958
-278.557
-279.932
-281.078
-281.997
-282.702
-283.191
-283.453
-283.48
-283.264
-282.809
-282.144
-281.281
-280.201
-278.931
-277.536
-276.072
-274.599
-273.137
-271.626
-270.058
-268.521
-266.951
-265.079
-262.852
-260.362
-257.587
-254.839
-251.611
-246.203
-238.952
-231.456
-226.275
-228.276
-237.269
-248.309
-256.511
-254.946
-242.997
-227.227
-212.719
-204.903
-204.837
-207.585
-210.064
-210.221
-207.37
-203.499
-199.552
-195.482
-191.421
-187.168
-182.731
-178.438
-174.407
-170.619
-167.127
-164.014
-161.387
-159.31
-157.832
-157.055
-157.029
-157.726
-158.997
-160.461
-161.642
-162.202
-161.799
-159.91
-156.243
-150.987
-144.754
-138.5
-133.21
-128.718
-124.036
-119.928
-117.382
-117.652
-123.1
-130.916
-135.121
-130.489
-109.897
-71.713
-20.894
37.902
98.236
156.137
212.814
268.47
321.939
370.338
408.943
434.599
446.396
444.732
430.143
402.62
362.841
312.858
255.553
194.09
130.971
68.077
7.784
-46.865
-93.317
-130.292
-157.741
-176.477
-187.331
-191.171
-189.512
-184.729
-179.405
-175.315
-173.254
-173.33
-175.442
-179.425
-184.882
-190.905
-196.265
-200.208
-202.549
-203.468
-203.385
-202.653
-201.533
-200.42
-199.798
-199.941
-200.919
-202.663
-204.948
-207.571
-210.383
-213.245
-216.025
-218.604
-220.865
-222.674
-223.9
-224.488
-224.429
-223.589
-221.822
-219.198
-215.732
-211.439
-206.645
-200.695
-192.944
-184.435
-175.511
-168.052
-164.303
-161.906
-159.311
-154.166
-143.211
-129.395
-115.225
-102.419
-93.796
-87.365
-81.097
-74.549
-66.498
-57.678
-49.029
-40.39
-31.889
-23.48
-14.987
-6.548
1.724
9.848
17.817
25.603
33.195
40.583
47.756
54.719
61.481
68.023
74.329
80.393
86.208
91.767
97.068
102.101
106.86
111.341
115.543
119.461
123.094
126.44
129.497
132.264
134.742
136.931
138.831
140.444
141.77
142.812
143.573
144.053
144.257
144.188
143.848
143.24
142.369
141.238
139.851
138.211
136.323
134.191
131.82
129.215
126.381
123.324
120.048
116.56
112.867
108.975
104.891
100.624
96.179
91.568
86.797
81.876
76.815
71.624
66.314
60.896
55.381
49.782
44.11
38.38
32.603
26.795
20.969
15.139
9.32
3.528
-2.223
-7.919
-13.543
-19.081
-24.519
-29.842
-35.037
-40.09
-44.988
-49.719
-54.271
-58.633
-62.796
-66.75
-70.487
-74
-77.283
-80.331
-83.14
-85.708
-88.033
-90.116
-91.958
-93.561
-94.931
-96.072
-96.992
-97.699
-98.201
-98.51
-98.637
-98.594
-98.395
-98.054
-97.585
-97.004
-96.326
-95.566
-94.741
-93.867
-92.958
-92.031
-91.101
-90.181
-89.287
-88.432
-87.63
-86.891
-86.228
-85.652
-85.172
-84.798
-84.537
-84.395
-84.378
-84.491
-84.736
-85.115
-85.629
-86.277
-87.057
-87.966
-89
-90.154
-91.422
-92.796
-94.269
-95.833
-97.479
-99.198
-100.979
-102.814
-104.692
-106.605
-108.542
-110.494
-112.452
-114.407
-116.35
-118.272
-120.167
-122.024
-123.838
-125.601
-127.306
-128.948
-130.52
-132.019
-133.439
-134.777
-136.029
-137.193
-138.268
-139.251
-140.143
-140.944
-141.653
-142.274
-142.807
-143.255
-143.621
-143.908
-144.118
-144.256
-144.324
-144.326
-144.266
-144.147
-143.972
-143.745
-143.469
-143.147
-142.782
-142.378
-141.937
-141.464
-140.962
-140.435
-139.886
-139.319
-138.74
-138.151
-137.559
-136.966
-136.378
-135.799
-135.234
-134.686
-134.16
-133.659
-133.188
-132.749
-132.345
-131.98
-131.657
-131.378
-131.145
-130.961
-130.828
-130.749
-130.725
-130.756
-130.845
-130.995
-131.209
-131.487
-131.832
-132.244
-132.725
-133.277
-133.897
-134.584
-135.333
-136.138
-136.997
-137.905
-138.859
-139.853
-140.881
-141.937
-143.019
-144.125
-145.252
-146.392
-147.536
-148.674
-149.805
-150.939
-152.081
-153.233
-154.395
-155.57
-156.76
-157.981
-159.23
-160.494
-161.759
-163.007
-164.236
-165.457
-166.679
-167.91
-169.144
-170.355
-171.528
-172.667
-173.763
-174.814
-175.807
-176.708
-177.521
-178.287
-179.035
-179.788
-180.544
-181.26
-181.908
-182.472
-182.946
-183.348
-183.683
-183.931
-184.081
-184.128
-184.076
-183.958
-183.77
-183.462
-183.011
-182.416
-181.718
-181.017
-180.399
-179.911
-179.579
-179.425
-179.477
-179.817
-180.532
-181.678
-183.31
-185.471
-188.156
-191.316
-194.775
-198.197
-201.242
-203.567
-204.827
-204.795
-203.386
-200.719
-197.467
-194.389
-191.8
-190.081
-188.603
-186.466
-184.179
-181.11
-177.373
-173.37
-165.664
-152.042
-129.858
-96.022
-53.633
-5.947
43.34
89.258
132.196
172.859
210.911
247.038
278.503
301.728
315.736
320.463
318.737
316.127
315.366
314.083
305.234
277.907
223.417
143.762
50.717
-38.379
-105.21
-142.207
-153.59
-149.35
-142.557
-140.327
-142.285
-145.154
-144.221
-137.851
-127.507
-115.472
-104.42
-95.391
-88.299
-83.082
-79.472
-77.383
-76.864
-77.492
-78.532
-79.645
-80.653
-81.356
-81.591
-81.045
-79.495
-77.187
-74.679
-72.297
-70.156
-68.281
-66.632
-65.336
-64.477
-63.846
-63.089
-61.932
-60.221
-57.938
-55.135
-51.782
-47.857
-43.416
-38.543
-33.331
-27.886
-22.26
-16.467
-10.541
-4.518
1.568
7.667
13.727
19.848
26.164
32.571
39.026
45.569
51.985
58.891
66.868
74.992
82.951
88.891
90.886
90.661
89.156
89.743
96.016
106.83
121.838
136.988
147.907
154.259
154.858
152.986
152.277
153.655
158.913
166.277
173.649
180.647
186.25
191.025
195.764
200.321
204.807
209.144
213.144
216.926
220.579
224.083
227.444
230.658
233.706
236.579
239.265
241.741
243.983
245.992
247.771
249.313
250.619
251.688
252.517
253.111
253.474
253.608
253.517
253.206
252.681
251.95
251.022
249.907
248.613
247.153
245.537
243.779
241.892
239.89
237.785
235.592
233.325
231
228.631
226.233
223.82
221.407
219.01
216.644
214.321
212.057
209.864
207.755
205.742
203.836
202.047
200.383
198.855
197.468
196.23
195.146
194.22
193.456
192.856
192.422
192.155
192.054
192.119
192.347
192.737
193.286
193.991
194.846
195.849
196.994
198.274
199.686
201.22
202.871
204.631
206.491
208.443
210.479
212.589
214.765
216.998
219.278
221.597
223.946
226.316
228.699
231.086
233.47
235.844
238.199
240.53
242.83
245.094
247.316
249.492
251.616
253.685
255.695
257.643
259.524
261.337
263.079
264.747
266.341
267.86
269.303
270.669
271.961
273.179
274.325
275.4
276.408
277.35
278.229
279.049
279.813
280.523
281.184
281.799
282.372
282.905
283.402
283.865
284.298
284.703
285.081
285.433
285.762
286.068
286.351
286.614
286.855
287.075
287.274
287.451
287.605
287.735
287.839
287.914
287.956
287.962
287.929
287.851
287.726
287.547
287.313
287.017
286.657
286.228
285.726
285.145
284.482
283.734
282.895
281.965
280.939
279.817
278.598
277.282
275.869
274.361
272.758
271.064
269.28
267.409
265.455
263.421
261.314
259.138
256.9
254.61
252.275
249.905
247.512
245.105
242.694
240.289
237.898
235.53
233.193
230.896
228.645
226.449
224.317
222.26
220.287
218.41
216.637
214.973
213.425
211.995
210.685
209.495
208.419
207.452
206.593
205.841
205.198
204.667
204.234
203.888
203.61
203.373
203.151
202.919
202.638
202.282
201.831
201.273
200.616
199.87
199.032
198.095
197.04
195.848
194.519
193.054
191.448
189.721
187.888
185.975
184.038
182.12
180.235
178.388
176.555
174.691
172.78
170.806
168.756
166.63
164.41
162.085
159.672
157.169
154.561
151.815
148.852
145.596
142.002
138.034
133.672
128.927
123.803
118.309
112.475
106.316
99.841
93.01
85.761
78.027
69.726
60.855
51.545
42.048
32.737
23.987
16.099
9.368
4.126
0.554
-1.441
-2.562
-3.842
-5.915
-9.279
-13.42
-17.772
-23.117
-29.073
-35.946
-43.613
-47.838
-45.966
-34.714
-10.054
25.367
68.83
117.155
164.723
211.167
256.922
300.856
342.283
378.35
405.357
421.478
427.179
422.768
409.622
389.821
362.787
328.273
284.79
228.976
161.341
86.729
13.744
-47.263
-89.75
-114.885
-129.213
-139.376
-150.657
-163.547
-175.157
-184.894
-192.538
-198.717
-205.58
-213.537
-222.216
-231.501
-240.462
-248.022
-253.813
-257.597
-259.325
-259.465
-258.441
-256.566
-254.356
-252.343
-250.833
-250.032
-250.021
-250.694
-251.971
-253.776
-255.97
-258.423
-261.017
-263.652
-266.257
-268.749
-271.024
-272.964
-274.447
-275.388
-275.745
-275.487
-274.61
-273.13
-271.068
-268.464
-265.377
-261.85
-257.931
-253.662
-249.082
-244.24
-239.192
-233.995
-228.708
-223.378
-218.034
-212.701
-207.396
-202.128
-196.901
-191.717
-186.567
-181.451
-176.37
-171.329
-166.334
-161.388
-156.496
-151.657
-146.876
-142.154
-137.499
-132.915
-128.41
-123.991
-119.668
-115.449
-111.347
-107.371
-103.531
-99.833
-96.284
-92.893
-89.664
-86.606
-83.724
-81.024
-78.513
-76.198
-74.084
-72.178
-70.486
-69.011
-67.759
-66.732
-65.934
-65.365
-65.028
-64.92
-65.042
-65.392
-65.966
-66.76
-67.771
-68.992
-70.416
-72.036
-73.844
-75.829
-77.983
-80.294
-82.751
-85.343
-88.056
-90.879
-93.799
-96.802
-99.875
-103.006
-106.179
-109.382
-112.601
-115.821
-119.031
-122.215
-125.363
-128.462
-131.5
-134.467
-137.353
-140.149
-142.846
-145.438
-147.916
-150.276
-152.513
-154.623
-156.603
-158.451
-160.165
-161.745
-163.192
-164.506
-165.69
-166.745
-167.673
-168.479
-169.165
-169.736
-170.197
-170.55
-170.803
-170.959
-171.025
-171.006
-170.909
-170.738
-170.499
-170.199
-169.844
-169.438
-168.987
-168.496
-167.971
-167.415
-166.833
-166.23
-165.608
-164.971
-164.322
-163.663
-162.996
-162.324
-161.648
-160.97
-160.29
-159.611
-158.932
-158.255
-157.581
-156.909
-156.24
-155.574
-154.912
-154.253
-153.596
-152.942
-152.291
-151.64
-150.991
-150.341
-149.691
-149.04
-148.386
-147.728
-147.066
-146.399
-145.726
-145.046
-144.359
-143.664
-142.962
-142.251
-141.532
-140.804
-140.068
-139.323
-138.57
-137.808
-137.037
-136.258
-135.471
-134.675
-133.872
-133.062
-132.244
-131.421
-130.591
-129.757
-128.918
-128.075
-127.23
-126.383
-125.535
-124.687
-123.842
-123.001
-122.165
-121.335
-120.515
-119.705
-118.907
-118.123
-117.354
-116.602
-115.867
-115.152
-114.458
-113.787
-113.139
-112.516
-111.92
-111.35
-110.809
-110.296
-109.811
-109.356
-108.929
-108.532
-108.162
-107.821
-107.508
-107.222
-106.962
-106.726
-106.515
-106.326
-106.156
-106.003
-105.863
-105.735
-105.617
-105.505
-105.398
-105.293
-105.181
-105.061
-104.93
-104.775
-104.585
-104.353
-104.064
-103.714
-103.317
-102.868
-102.362
-101.835
-101.303
-100.758
-100.222
-99.689
-99.095
-98.414
-97.651
-96.646
-95.256
-93.621
-91.748
-89.545
-87.373
-84.673
-80.72
-76.549
-72.525
-70.42
-73.14
-79.458
-87.257
-92.565
-89.522
-77.235
-58.776
-40.157
-28.621
-27.831
-35.821
-46.567
-54.442
-55.608
-50.367
-42.673
-35.186
-29.592
-26.187
-23.42
-20.65
-17.898
-15.108
-12.563
-10.342
-8.225
-6.149
-4.14
-2.166
-0.22
1.684
3.561
5.422
7.257
9.082
10.932
12.811
14.737
16.745
18.876
21.187
23.73
26.521
29.565
32.861
36.39
40.12
43.996
47.931
51.838
55.633
59.244
62.602
65.613
68.18
70.158
71.343
71.667
71.2
70.143
68.855
67.646
66.687
66.278
66.858
68.525
71.085
73.906
75.878
76.354
75.264
72.545
68.225
62.785
57.093
52.917
52.871
58.737
71.449
91.66
119.617
155.391
198.623
247.672
299.867
352.883
404.997
454.925
501.187
541.721
574.069
595.637
605.683
604.625
593.56
575.901
552.661
521.994
481.1
423
345.276
254.016
159.191
77.301
20.852
-9.064
-17.086
-14.278
-11.149
-11.113
-14.254
-18.276
-20.953
-22.453
-24.119
-27.481
-32.92
-39.89
-47.246
-53.346
-57.404
-59.273
-58.985
-57.005
-53.87
-50.012
-46.017
-42.513
-39.834
-38.13
-37.432
-37.608
-38.529
-40.09
-42.131
-44.478
-47.013
-49.645
-52.274
-54.815
-57.159
-59.166
-60.749
-61.857
-62.455
-62.542
-62.131
-61.242
-59.917
-58.215
-56.186
-53.878
-51.334
-48.591
-45.698
-42.711
-39.688
-36.69
-33.761
-30.93
-28.219
-25.638
-23.189
-20.872
-18.675
-16.582
-14.583
-12.67
-10.839
-9.086
-7.407
-5.794
-4.239
-2.735
-1.275
0.144
1.527
2.874
4.188
5.467
6.709
7.91
9.066
10.175
11.236
12.247
13.205
14.106
14.945
15.72
16.423
17.049
17.59
18.038
18.385
18.622
18.742
18.736
18.596
18.316
17.889
17.307
16.565
15.657
14.579
13.327
11.896
10.285
8.489
6.508
4.341
1.987
-0.554
-3.279
-6.188
-9.276
-12.54
-15.975
-19.574
-23.332
-27.24
-31.289
-35.471
-39.773
-44.185
-48.694
-53.289
-57.956
-62.681
-67.453
-72.257
-77.08
-81.91
-86.734
-91.541
-96.318
-101.054
-105.739
-110.362
-114.913
-119.383
-123.763
-128.044
-132.218
-136.277
-140.216
-144.028
-147.708
-151.25
-154.651
-157.908
-161.019
-163.983
-166.799
-169.468
-171.992
-174.372
-176.613
-178.717
-180.69
-182.536
-184.26
-185.869
-187.368
-188.764
-190.062
-191.269
-192.392
-193.437
-194.411
-195.321
-196.172
-196.972
-197.728
-198.445
-199.131
-199.792
-200.435
-201.066
-201.691
-202.316
-202.946
-203.587
-204.242
-204.915
-205.611
-206.331
-207.077
-207.851
-208.654
-209.484
-210.343
-211.228
-212.138
-213.071
-214.024
-214.996
-215.983
-216.981
-217.987
-218.997
-220.008
-221.015
-222.013
-222.999
-223.966
-224.911
-225.828
-226.712
-227.556
-228.356
-229.105
-229.799
-230.43
-230.994
-231.486
-231.901
-232.233
-232.48
-232.638
-232.703
-232.673
-232.546
-232.32
-231.994
-231.566
-231.038
-230.409
-229.68
-228.851
-227.923
-226.899
-225.78
-224.567
-223.264
-221.872
-220.394
-218.834
-217.193
-215.478
-213.69
-211.836
-209.919
-207.945
-205.919
-203.846
-201.732
-199.583
-197.403
-195.198
-192.973
-190.733
-188.483
-186.227
-183.97
-181.717
-179.47
-177.233
-175.008
-172.799
-170.607
-168.435
-166.284
-164.155
-162.052
-159.974
-157.923
-155.902
-153.91
-151.95
-150.02
-148.12
-146.25
-144.408
-142.591
-140.799
-139.027
-137.273
-135.534
-133.806
-132.087
-130.372
-128.658
-126.939
-125.212
-123.47
-121.71
-119.927
-118.115
-116.269
-114.387
-112.464
-110.496
-108.479
-106.409
-104.282
-102.091
-99.833
-97.5
-95.087
-92.585
-89.99
-87.297
-84.5
-81.597
-78.584
-75.46
-72.224
-68.879
-65.422
-61.854
-58.173
-54.375
-50.461
-46.429
-42.277
-38.005
-33.615
-29.11
-24.498
-19.789
-14.988
-10.103
-5.136
-0.085
5.043
10.242
15.503
20.813
26.15
31.489
36.79
42.011
47.123
52.102
56.936
61.628
66.179
70.596
74.891
79.062
83.108
87.028
90.811
94.461
97.998
101.455
104.895
108.399
112.028
115.84
119.872
124.128
128.601
133.263
138.063
142.971
147.969
153.043
158.205
163.457
168.768
174.085
179.311
184.306
188.946
193.111
196.678
199.561
201.742
203.274
204.231
204.66
204.549
203.812
202.408
200.365
197.565
193.813
189.239
184.243
179.282
175.108
171.626
167.76
164.244
162.498
164.504
173.914
189.632
206.876
221.322
226.836
222.758
214.974
208.571
209.546
220.755
239.558
264.2
293.934
329.21
371.971
422.566
479.387
539.779
601.173
661.683
719.059
770.4
812.841
843.938
862.498
868.537
861.886
842.148
809.931
767.105
716.452
661.173
603.868
546.586
491.799
442.49
401.082
368.71
345.254
329.772
321.322
318.983
321.312
326.113
331.102
334.807
336.662
336.759
335.362
332.689
329.135
325.538
322.923
321.894
322.567
324.654
327.675
331.257
335.095
338.801
341.945
344.253
345.63
346.137
345.959
345.258
344.159
342.789
341.279
339.75
338.318
337.108
336.229
335.763
335.77
336.284
337.319
338.882
340.963
343.523
346.504
349.847
353.494
357.4
361.524
365.814
370.207
374.635
379.026
383.327
387.499
391.507
395.324
398.93
402.308
405.456
408.38
411.081
413.555
415.797
417.797
419.553
421.066
422.335
423.359
424.139
424.671
424.956
424.991
424.775
424.304
423.573
422.576
421.31
419.774
417.966
415.887
413.537
410.917
408.027
404.869
401.445
397.755
393.8
389.58
385.095
380.347
375.336
370.064
364.532
358.741
352.695
346.396
339.846
333.049
326.009
318.73
311.217
303.475
295.51
287.329
278.939
270.347
261.564
252.598
243.459
234.158
224.706
215.114
205.395
195.562
185.626
175.601
165.502
155.341
145.134
134.895
124.639
114.381
104.137
93.921
83.749
73.634
63.593
53.638
43.785
34.045
24.434
14.962
5.642
-3.515
-12.498
-21.299
-29.907
-38.316
-46.518
-54.508
-62.279
-69.829
-77.152
-84.247
-91.111
-97.744
-104.145
-110.314
-116.252
-121.961
-127.442
-132.7
-137.737
-142.557
-147.165
-151.566
-155.766
-159.77
-163.585
-167.219
-170.678
-173.97
-177.103
-180.085
-182.925
-185.631
-188.212
-190.675
-193.03
-195.284
-197.447
-199.525
-201.528
-203.462
-205.336
-207.157
-208.932
-210.668
-212.373
-214.053
-215.715
-217.365
-219.01
-220.656
-222.309
-223.974
-225.657
-227.363
-229.097
-230.863
-232.665
-234.506
-236.39
-238.32
-240.298
-242.325
-244.403
-246.534
-248.717
-250.954
-253.244
-255.587
-257.983
-260.431
-262.929
-265.478
-268.074
-270.716
-273.401
-276.129
-278.894
-281.696
-284.53
-287.392
-290.28
-293.19
-296.116
-299.055
-302.003
-304.955
-307.906
-310.852
-313.788
-316.71
-319.614
-322.494
-325.349
-328.173
-330.963
-333.716
-336.428
-339.096
-341.717
-344.288
-346.807
-349.27
-351.676
-354.022
-356.307
-358.528
-360.685
-362.776
-364.799
-366.754
-368.639
-370.453
-372.196
-373.867
-375.464
-376.989
-378.441
-379.819
-381.123
-382.353
-383.508
-384.587
-385.59
-386.515
-387.362
-388.129
-388.814
-389.417
-389.936
-390.369
-390.716
-390.973
-391.14
-391.215
-391.194
-391.074
-390.854
-390.529
-390.098
-389.557
-388.903
-388.133
-387.245
-386.236
-385.103
-383.844
-382.456
-380.937
-379.284
-377.495
-375.57
-373.508
-371.308
-368.97
-366.495
-363.885
-361.143
-358.271
-355.272
-352.148
-348.903
-345.54
-342.066
-338.484
-334.801
-331.024
-327.161
-323.224
-319.225
-315.174
-311.083
-306.963
-302.828
-298.687
-294.554
-290.436
-286.342
-282.285
-278.277
-274.332
-270.46
-266.673
-262.98
-259.39
-255.911
-252.551
-249.313
-246.2
-243.216
-240.368
-237.669
-235.135
-232.78
-230.606
-228.615
-226.803
-225.166
-223.692
-222.363
-221.146
-220.011
-218.932
-217.884
-216.847
-215.788
-214.664
-213.432
-212.049
-210.486
-208.727
-206.767
-204.603
-202.254
-199.747
-197.116
-194.434
-191.775
-189.21
-186.847
-184.79
-183.129
-182.003
-181.558
-181.818
-182.724
-184.098
-185.632
-187.091
-188.29
-188.93
-188.751
-187.76
-186.224
-184.732
-184.003
-184.403
-186.049
-189.126
-193.646
-199.118
-204.452
-207.878
-207.513
-202.105
-190.835
-172.822
-147.293
-114.066
-73.953
-28.931
18.652
66.889
114.146
158.328
196.767
226.882
246.881
256.164
254.693
242.274
218.59
184.186
140.962
91.578
38.765
-15.282
-68.639
-119.03
-163.726
-200.53
-228.604
-248.182
-260.119
-265.295
-264.586
-259.356
-251.698
-243.751
-236.83
-231.416
-227.449
-224.758
-223.259
-222.694
-222.345
-221.293
-219.036
-215.567
-211.197
-206.34
-201.271
-196.164
-191.301
-187.07
-183.706
-181.284
-179.729
-178.832
-178.413
-178.351
-178.508
-178.729
-178.861
-178.711
-178.12
-177.029
-175.419
-173.329
-170.824
-167.937
-164.704
-161.182
-157.433
-153.545
-149.602
-145.667
-141.814
-138.129
-134.714
-131.714
-129.248
-127.368
-126.084
-125.349
-125.08
-125.222
-125.727
-126.535
-127.596
-128.855
-130.257
-131.776
-133.374
-135
-136.586
-138.036
-139.266
-140.236
-140.931
-141.372
-141.607
-141.665
-141.568
-141.348
-141.021
-140.598
-140.09
-139.488
-138.779
-137.965
-137.06
-136.092
-135.094
-134.077
-133.045
-131.988
-130.884
-129.723
-128.498
-127.197
-125.821
-124.371
-122.849
-121.284
-119.707
-118.142
-116.611
-115.119
-113.66
-112.257
-110.937
-109.687
-108.501
-107.378
-106.306
-105.321
-104.477
-103.76
-103.134
-102.712
-102.621
-102.784
-103.205
-103.905
-104.603
-106.044
-108.95
-112.271
-115.685
-117.265
-114.707
-110.536
-106.427
-104.884
-109.348
-116.743
-124.454
-130.685
-132.479
-131.917
-131.107
-130.504
-131.387
-132.982
-134.304
-135.52
-136.49
-137.262
-138.019
-138.618
-138.947
-139.028
-138.86
-138.425
-137.722
-136.753
-135.521
-134.045
-132.347
-130.422
-128.265
-125.884
-123.286
-120.481
-117.48
-114.291
-110.926
-107.4
-103.728
-99.926
-96.011
-91.999
-87.906
-83.749
-79.547
-75.316
-71.073
-66.835
-62.618
-58.438
-54.311
-50.249
-46.266
-42.373
-38.58
-34.897
-31.33
-27.887
-24.571
-21.386
-18.335
-15.417
-12.633
-9.98
-7.454
-5.051
-2.765
-0.587
1.49
3.475
5.38
7.216
8.993
10.724
12.422
14.1
15.771
17.45
19.151
20.888
22.675
24.525
26.451
28.467
30.584
32.813
35.164
37.646
40.268
43.036
45.958
49.037
52.277
55.681
59.25
62.983
66.877
70.93
75.136
79.49
83.985
88.615
93.37
98.243
103.223
108.301
113.465
118.704
124.005
129.355
134.74
140.145
145.556
150.959
156.34
161.683
166.975
172.202
177.35
182.406
187.357
192.189
196.891
201.45
205.857
210.104
214.181
218.084
221.807
225.348
228.707
231.881
234.87
237.672
240.29
242.722
244.969
247.031
248.908
250.605
252.128
253.484
254.683
255.734
256.649
257.44
258.12
258.704
259.203
259.624
259.976
260.27
260.522
260.751
260.971
261.19
261.411
261.641
261.882
262.134
262.383
262.605
262.777
262.886
262.935
262.937
262.902
262.842
262.766
262.686
262.632
262.642
262.744
262.961
263.315
263.83
264.563
265.595
266.996
268.807
271.043
273.7
276.783
280.295
284.221
288.521
293.117
297.929
302.9
307.991
313.173
318.411
323.629
328.719
333.587
338.169
342.415
346.287
349.721
352.644
355.022
356.884
358.324
359.431
360.265
360.824
361.05
360.918
360.418
359.507
358.192
356.511
354.547
352.655
351.338
351.009
352.105
355.06
359.962
366.742
375.031
383.677
391.324
397.646
403.21
408.498
414.256
418.261
415.387
404.311
387.064
372.147
374.526
402.941
458.392
534.129
617.276
699.759
778.845
853.84
921.252
972.696
1000.323
999.88
977.508
945.74
913.609
887.489
865.312
839.737
807.578
766.43
718.035
668.597
622.024
581.689
549.52
524.25
504.945
491.533
483.798
481.653
484.391
490.115
496.869
503.608
509.914
515.563
520.459
524.515
527.787
530.902
534.725
539.628
545.566
552.269
559.348
566.539
573.672
580.427
586.389
591.317
595.143
597.939
599.908
601.219
601.985
602.347
602.467
602.5
602.622
602.988
603.684
604.773
606.301
608.287
610.76
613.731
617.171
621.036
625.275
629.838
634.684
639.778
645.072
650.51
656.031
661.572
667.091
672.56
677.958
683.272
688.488
693.601
698.615
703.543
708.393
713.17
717.871
722.494
727.039
731.511
735.91
740.237
744.492
748.668
752.763
756.772
760.689
764.505
768.212
771.799
775.257
778.578
781.756
784.785
787.657
790.366
792.904
795.265
797.442
799.427
801.212
802.787
804.145
805.278
806.177
806.835
807.245
807.401
807.295
806.924
806.282
805.365
804.171
802.697
800.941
798.903
796.582
793.981
791.1
787.943
784.513
780.814
776.853
772.635
768.168
763.46
758.52
753.358
747.983
742.408
736.644
730.706
724.605
718.359
711.981
705.488
698.896
692.223
685.484
678.698
671.881
665.05
658.222
651.414
644.641
637.918
631.262
624.686
618.204
611.828
605.571
599.444
593.456
587.615
581.93
576.407
571.051
565.865
560.854
556.017
551.356
546.87
542.557
538.414
534.435
530.616
526.948
523.425
520.036
516.772
513.62
510.57
507.608
504.721
501.896
499.116
496.369
493.638
490.91
488.168
485.397
482.583
479.712
476.769
473.741
470.616
467.381
464.027
460.542
456.919
453.148
449.223
445.136
440.883
436.46
431.863
427.09
422.14
417.013
411.71
406.233
400.585
394.769
388.792
382.657
376.372
369.943
363.378
356.685
349.872
342.949
335.925
328.809
321.611
314.339
307.003
299.612
292.174
284.697
277.188
269.653
262.099
254.532
246.955
239.373
231.789
224.207
216.628
209.052
201.482
193.916
186.354
178.793
171.232
163.668
156.097
148.514
140.915
133.296
125.649
117.969
110.25
102.484
94.664
86.783
78.832
70.805
62.694
54.492
46.19
37.784
29.265
20.629
11.87
2.983
-6.036
-15.191
-24.485
-33.921
-43.5
-53.223
-63.092
-73.105
-83.262
-93.561
-103.998
-114.571
-125.275
-136.104
-147.053
-158.116
-169.286
-180.553
-191.911
-203.349
-214.857
-226.426
-238.042
-249.695
-261.372
-273.061
-284.749
-296.424
-308.073
-319.682
-331.241
-342.736
-354.156
-365.488
-376.723
-387.849
-398.857
-409.737
-420.481
-431.083
-441.534
-451.832
-461.971
-471.951
-481.773
-491.435
-500.942
-510.296
-519.504
-528.57
-537.501
-546.302
-554.982
-563.547
-572.01
-580.381
-588.674
-596.904
-605.085
-613.233
-621.362
-629.488
-637.624
-645.779
-653.964
-662.191
-670.474
-678.835
-687.294
-695.868
-704.57
-713.408
-722.387
-731.502
-740.743
-750.083
-759.499
-768.965
-778.463
-787.981
-797.503
-807.008
-816.468
-825.835
-835.067
-844.129
-852.989
-861.626
-870.044
-878.257
-886.307
-894.272
-902.217
-910.192
-918.256
-926.452
-934.836
-943.489
-952.503
-961.957
-971.967
-982.681
-994.128
-1006.223
-1018.734
-1031.261
-1043.428
-1054.965
-1065.509
-1074.617
-1082.184
-1088.426
-1093.916
-1099.634
-1106.224
-1113.791
-1122.503
-1132.58
-1143.607
-1154.651
-1164.043
-1169.281
-1168.477
-1160.691
-1144.983
-1120.429
-1086.805
-1044.546
-995.268
-941.946
-887.301
-833.37
-782.308
-736.745
-699.342
-672.364
-657.143
-653.989
-662.857
-683.975
-717.753
-762.394
-815.071
-874.24
-937.429
-1004.153
-1074.498
-1142.98
-1204.554
-1254.578
-1288.737
-1310.193
-1322.538
-1328.7
-1332.816
-1334.814
-1335.34
-1335.937
-1336.445
-1338.171
-1341.853
-1346.969
-1353.396
-1360.262
-1366.118
-1370.304
-1372.622
-1373.084
-1372.152
-1370.308
-1367.865
-1365.293
-1363.207
-1361.938
-1361.555
-1362.136
-1363.753
-1366.288
-1369.525
-1373.323
-1377.249
-1381.633
-1387.917
-1395.712
-1403.418
-1408.593
-1406.658
-1397.584
-1385.864
-1375.913
-1374.049
-1381.004
-1390.763
-1398.679
-1399.829
-1393.128
-1383.111
-1372.654
-1363.647
-1356.813
-1350.382
-1343.521
-1336.349
-1328.822
-1321.231
-1313.678
-1305.923
-1297.886
-1289.606
-1281.067
-1272.251
-1263.172
-1253.843
-1244.296
-1234.579
-1224.711
-1214.679
-1204.484
-1194.136
-1183.649
-1173.037
-1162.313
-1151.489
-1140.58
-1129.612
-1118.606
-1107.584
-1096.565
-1085.568
-1074.611
-1063.712
-1052.89
-1042.163
-1031.548
-1021.06
-1010.718
-1000.538
-990.535
-980.726
-971.123
-961.74
-952.589
-943.68
-935.023
-926.628
-918.499
-910.641
-903.058
-895.75
-888.719
-881.965
-875.487
-869.281
-863.349
-857.691
-852.301
-847.179
-842.316
-837.683
-833.267
-829.054
-824.991
-821.046
-817.208
-813.444
-809.734
-806.114
-802.596
-799.161
-795.935
-793.025
-790.279
-787.668
-785.263
-782.723
-780.486
-779.157
-777.828
-776.159
-772.618
-764.604
-752.956
-739.526
-728.013
-723.846
-728.436
-739.175
-750.128
-754.325
-747.671
-731.662
-712.453
-695.667
-685.36
-681.533
-680.083
-678.25
-674.314
-667.889
-660.598
-653.155
-645.53
-637.798
-629.693
-621.152
-612.426
-603.596
-594.65
-585.622
-576.524
-567.351
-558.105
-548.777
-539.339
-529.791
-520.163
-510.471
-500.727
-490.946
-481.14
-471.323
-461.514
-451.726
-441.971
-432.258
-422.6
-413.009
-403.496
-394.073
-384.75
-375.538
-366.445
-357.482
-348.658
-339.979
-331.453
-323.086
-314.884
-306.849
-298.986
-291.296
-283.781
-276.439
-269.271
-262.273
-255.443
-248.776
-242.268
-235.911
-229.7
-223.626
-217.682
-211.857
-206.14
-200.523
-194.998
-189.556
-184.189
-178.885
-173.63
-168.414
-163.235
-158.076
-152.913
-147.726
-142.491
-137.196
-131.853
-126.453
-120.966
-115.399
-109.79
-104.165
-98.559
-92.968
-87.328
-81.619
-75.898
-70.095
-63.978
-57.506
-50.744
-43.663
-36.516
-28.826
-19.182
-7.932
3.641
13.377
17.247
15.597
12.45
11.828
19.461
35.609
54.851
72.969
85.385
91.36
94.927
98.594
104.084
111.805
120.16
128.646
137.357
146.168
155.354
164.727
174.502
186.027
199.049
212.254
223.507
228.794
228.318
226.148
226.336
234.601
251.351
271.169
289.868
302.944
309.556
313.743
317.995
323.993
332.272
341.183
349.964
358.671
367.242
375.921
384.771
393.565
402.232
410.808
419.284
427.646
435.901
444.056
452.127
460.151
468.137
476.063
483.921
491.71
499.427
507.07
514.635
522.117
529.512
536.821
544.047
551.189
558.249
565.227
572.126
578.947
585.692
592.365
598.969
605.507
611.982
618.399
624.761
631.074
637.34
643.565
649.752
655.904
662.026
668.119
674.187
680.233
686.259
692.269
698.264
704.248
710.221
716.185
722.14
728.085
734.02
739.941
745.843
751.72
757.565
763.371
769.127
774.823
780.45
785.996
791.452
796.807
802.051
807.172
812.159
816.996
821.671
826.17
830.48
834.59
838.488
842.164
845.61
848.824
851.801
854.536
857.018
859.229
861.158
862.795
864.138
865.189
865.955
866.449
866.692
866.72
866.565
866.261
865.833
865.298
864.675
863.997
863.302
862.651
862.096
861.663
861.37
861.233
861.245
861.401
861.673
861.977
862.248
862.461
862.586
862.605
862.483
862.111
861.38
860.204
858.48
856.087
852.972
849.378
845.63
841.997
838.947
836.097
833.13
831.134
830.272
831.88
837.286
843.567
849.028
851.126
846.442
838.176
829.432
823.359
824.907
833.481
847.762
867.849
892.975
924.338
962.92
1007.348
1055.428
1105.065
1154.479
1202.36
1246.999
1285.731
1315.892
1335.742
1344.616
1342.156
1327.89
1301.244
1262.555
1213.811
1157.849
1097.618
1035.655
974.268
916.085
864.203
820.994
787.19
762.474
745.979
736.792
734.038
736.35
741.524
747.58
753.769
759.815
765.58
770.829
774.955
777.643
779.359
780.449
780.41
778.801
775.381
770.233
764.163
757.797
751.201
744.598
738.588
733.575
729.842
727.348
725.444
723.699
722.027
720.278
718.329
716.146
713.667
711.006
708.533
706.457
704.844
703.744
703.087
702.816
702.92
703.327
703.926
704.651
705.443
706.266
707.115
707.957
708.756
709.49
710.131
710.666
711.091
711.399
711.599
711.704
711.723
711.665
711.535
711.335
711.07
710.747
710.371
709.949
709.487
708.992
708.474
707.94
707.392
706.83
706.253
705.655
705.03
704.376
703.688
702.961
702.191
701.374
700.504
699.576
698.582
697.512
696.353
695.091
693.709
692.189
690.514
688.667
686.632
684.393
681.935
679.241
676.302
673.103
669.627
665.858
661.771
657.349
652.582
647.466
642.004
636.21
630.094
623.667
616.954
609.97
602.721
595.211
587.422
579.34
570.963
562.295
553.359
544.181
534.765
525.12
515.247
505.125
494.747
484.117
473.205
462.011
450.55
438.84
426.959
415.027
403.097
391.18
379.284
367.401
355.58
343.935
332.526
321.35
310.535
300.38
291.036
282.514
274.874
267.864
261.892
258.299
256.71
255.771
253.27
245.108
231.52
216.535
204.201
200.262
205.005
212.914
219.685
220.674
215.073
206.947
198.811
192.427
188.324
184.852
181.283
177.677
173.98
170.444
167.11
163.733
160.238
156.666
153.032
149.347
145.619
141.851
138.043
134.204
130.322
126.364
122.3
118.12
113.815
109.385
104.838
100.184
95.432
90.589
85.66
80.646
75.554
70.392
65.17
59.9
54.596
49.269
43.936
38.61
33.305
28.03
22.793
17.6
12.459
7.375
2.354
-2.597
-7.471
-12.264
-16.97
-21.582
-26.097
-30.51
-34.821
-39.026
-43.126
-47.121
-51.01
-54.796
-58.481
-62.066
-65.555
-68.95
-72.255
-75.474
-78.612
-81.673
-84.663
-87.587
-90.453
-93.268
-96.037
-98.768
-101.468
-104.145
-106.805
-109.455
-112.102
-114.751
-117.41
-120.084
-122.779
-125.503
-128.26
-131.055
-133.893
-136.779
-139.715
-142.706
-145.755
-148.863
-152.032
-155.265
-158.563
-161.926
-165.355
-168.851
-172.412
-176.037
-179.724
-183.471
-187.273
-191.127
-195.028
-198.972
-202.952
-206.963
-210.997
-215.05
-219.113
-223.18
-227.244
-231.295
-235.328
-239.334
-243.306
-247.235
-251.115
-254.937
-258.696
-262.382
-265.991
-269.513
-272.944
-276.275
-279.501
-282.615
-285.611
-288.485
-291.23
-293.843
-296.32
-298.658
-300.855
-302.908
-304.816
-306.58
-308.198
-309.671
-311.001
-312.189
-313.238
-314.149
-314.927
-315.576
-316.098
-316.499
-316.782
-316.952
-317.015
-316.975
-316.838
-316.61
-316.297
-315.906
-315.443
-314.916
-314.332
-313.699
-313.023
-312.314
-311.578
-310.823
-310.056
-309.284
-308.516
-307.758
-307.018
-306.303
-305.618
-304.971
-304.367
-303.812
-303.31
-302.866
-302.483
-302.166
-301.917
-301.742
-301.642
-301.621
-301.68
-301.822
-302.048
-302.359
-302.753
-303.23
-303.788
-304.426
-305.139
-305.925
-306.781
-307.7
-308.679
-309.714
-310.799
-311.927
-313.093
-314.289
-315.507
-316.742
-317.984
-319.225
-320.457
-321.674
-322.872
-324.048
-325.197
-326.316
-327.4
-328.446
-329.452
-330.414
-331.324
-332.175
-332.959
-333.671
-334.316
-334.9
-335.423
-335.887
-336.296
-336.65
-336.959
-337.229
-337.45
-337.616
-337.725
-337.78
-337.807
-337.83
-337.86
-337.911
-337.979
-338.052
-338.13
-338.201
-338.222
-338.162
-337.976
-337.621
-337.109
-336.436
-335.583
-334.532
-333.228
-331.627
-329.72
-327.51
-325.006
-322.24
-319.231
-316.017
-312.72
-309.47
-306.409
-303.689
-301.394
-299.599
-298.447
-298.122
-298.741
-300.308
-302.659
-305.449
-308.393
-311.306
-313.953
-315.986
-317.182
-317.601
-317.684
-318.311
-320.275
-323.898
-329.306
-336.59
-345.427
-354.893
-363.384
-368.512
-367.867
-359.777
-343.026
-316.615
-280.191
-234.245
-180.223
-120.712
-58.771
2.813
61.512
115.065
161.282
198.154
224.655
239.672
242.538
234.613
216.382
189.765
158.75
122.97
81.551
33.304
-25.473
-91.626
-157.252
-215.462
-259.085
-287.66
-306.784
-319.169
-325.377
-323.252
-309.719
-288.53
-268.587
-258.652
-263.817
-281.35
-302.269
-318.262
-325.156
-323.568
-318.116
-312.649
-308.395
-305.034
-301.243
-296.519
-291.454
-286.782
-282.994
-280.139
-278.011
-276.41
-275.219
-274.326
-273.587
-272.872
-272.117
-271.301
-270.381
-269.295
-267.94
-266.199
-264.006
-261.325
-258.133
-254.433
-250.241
-245.58
-240.498
-235.056
-229.303
-223.288
-217.054
-210.636
-204.084
-197.46
-190.824
-184.242
-177.766
-171.429
-165.258
-159.272
-153.483
-147.898
-142.516
-137.326
-132.326
-127.522
-122.926
-118.552
-114.402
-110.467
-106.727
-103.168
-99.774
-96.535
-93.431
-90.44
-87.551
-84.769
-82.113
-79.606
-77.254
-75.04
-72.94
-70.934
-69.016
-67.203
-65.52
-63.988
