Name
Date of Birth,"Jun 12, 2006"
Recorded Date,2023-03-04 20:57:45 -0500
Classification,Inconclusive
Symptoms,
Software Version,1.90
Device,"Watch6,7"
Sample Rate,512 hertz


Lead,Lead I
Unit,µV

-39.801
34.393
65.518
67.829
62.837
63.727
72.196
84.914
93.22
93.83
89.537
83.614
80.45
81.803
86.42
92.96
100.053
106.279
110.642
112.63
112.054
109.218
104.793
99.358
93.356
87.326
81.785
77.031
73.224
70.322
68.107
66.407
65.08
63.969
62.945
61.883
60.639
59.068
57.035
54.44
51.223
47.353
42.813
37.598
31.725
25.245
18.236
10.77
2.92
-5.258
-13.709
-22.361
-31.127
-39.914
-48.622
-57.175
-65.515
-73.59
-81.357
-88.778
-95.828
-102.495
-108.781
-114.679
-120.177
-125.265
-129.926
-134.156
-137.952
-141.312
-144.238
-146.729
-148.784
-150.407
-151.601
-152.37
-152.718
-152.649
-152.167
-151.281
-150.003
-148.347
-146.331
-143.972
-141.289
-138.304
-135.041
-131.522
-127.77
-123.81
-119.665
-115.361
-110.922
-106.373
-101.739
-97.045
-92.316
-87.574
-82.845
-78.149
-73.509
-68.944
-64.475
-60.119
-55.892
-51.81
-47.886
-44.13
-40.554
-37.164
-33.968
-30.969
-28.171
-25.574
-23.179
-20.982
-18.981
-17.171
-15.545
-14.095
-12.814
-11.692
-10.718
-9.882
-9.172
-8.576
-8.082
-7.677
-7.348
-7.083
-6.869
-6.693
-6.543
-6.407
-6.275
-6.135
-5.974
-5.786
-5.564
-5.302
-4.993
-4.632
-4.208
-3.724
-3.184
-2.573
-1.881
-1.102
-0.223
0.742
1.772
2.88
4.079
5.326
6.585
7.827
9.009
10.157
11.328
12.481
13.548
14.687
16.088
17.628
19.314
21.178
22.799
25.295
29.757
34.619
39.404
41.24
36.689
29.55
22.354
18.872
24.283
34.002
44.141
52.037
53.286
51.033
48.463
46.284
46.436
47.788
48.888
50.01
50.964
51.848
52.95
54.077
55.071
55.98
56.81
57.539
58.168
58.702
59.144
59.516
59.847
60.121
60.32
60.446
60.497
60.469
60.362
60.171
59.889
59.518
59.058
58.509
57.873
57.152
56.351
55.475
54.528
53.517
52.449
51.331
50.173
48.98
47.763
46.529
45.288
44.053
42.836
41.65
40.508
39.427
38.422
37.51
36.709
36.031
35.489
35.095
34.859
34.789
34.894
35.181
35.658
36.331
37.206
38.289
39.582
41.082
42.782
44.673
46.743
48.98
51.37
53.898
56.557
59.344
62.258
65.301
68.47
71.756
75.142
78.609
82.126
85.652
89.141
92.546
95.827
98.962
101.927
104.701
107.253
109.542
111.518
113.138
114.353
115.113
115.369
115.064
114.198
112.846
111.094
109.065
106.858
104.501
102.077
99.746
97.544
95.404
93.119
90.245
86.462
81.685
75.727
68.382
59.754
50.13
40.378
32.072
26.461
24.37
26.555
33.297
44.097
57.936
72.481
84.06
89.491
85.993
70.713
42.026
-0.281
-55.699
-120.373
-188.697
-257.158
-320.616
-375.776
-420.666
-448.919
-457.876
-444.852
-405.974
-343.162
-256.444
-150.688
-39.918
60.527
133.754
170.596
176.057
163.179
145.777
132.702
124.495
115.972
104.483
90.523
76.231
65.4
59.319
56.784
56.508
56.758
55.814
53.07
48.361
41.693
33.66
24.919
15.93
7.263
-0.475
-6.975
-12.09
-15.795
-18.303
-19.818
-20.472
-20.448
-19.911
-18.991
-17.845
-16.629
-15.45
-14.395
-13.536
-12.905
-12.541
-12.472
-12.699
-13.2
-13.936
-14.866
-15.96
-17.195
-18.543
-19.964
-21.408
-22.812
-24.136
-25.357
-26.46
-27.441
-28.295
-29.022
-29.634
-30.156
-30.611
-31.016
-31.378
-31.704
-32
-32.281
-32.557
-32.839
-33.13
-33.43
-33.738
-34.05
-34.362
-34.664
-34.944
-35.185
-35.373
-35.496
-35.542
-35.496
-35.345
-35.074
-34.669
-34.116
-33.399
-32.504
-31.415
-30.116
-28.593
-26.832
-24.822
-22.551
-20.007
-17.183
-14.07
-10.664
-6.96
-2.957
1.348
5.951
10.851
16.04
21.513
27.26
33.27
39.532
46.031
52.752
59.677
66.789
74.068
81.494
89.046
96.702
104.439
112.235
120.067
127.912
135.747
143.548
151.294
158.961
166.529
173.978
181.288
188.44
195.42
202.211
208.801
215.178
221.331
227.253
232.938
238.381
243.579
248.53
253.237
257.7
261.923
265.913
269.675
273.218
276.551
279.684
282.63
285.399
288.004
290.46
292.779
294.977
297.066
299.062
300.978
302.829
304.629
306.391
308.127
309.849
311.57
313.298
315.043
316.814
318.616
320.457
322.34
324.27
326.249
328.277
330.357
332.486
334.662
336.884
339.148
341.448
343.78
346.138
348.514
350.902
353.294
355.681
358.056
360.409
362.732
365.015
367.25
369.428
371.539
373.576
375.529
377.391
379.153
380.81
382.353
383.778
385.08
386.253
387.295
388.201
388.97
389.6
390.087
390.433
390.637
390.698
390.618
390.398
390.038
389.542
388.912
388.151
387.26
386.242
385.1
383.838
382.459
380.965
379.359
377.646
375.83
373.913
371.899
369.793
367.597
365.313
362.946
360.497
357.968
355.36
352.676
349.918
347.086
344.185
341.214
338.178
335.077
331.915
328.693
325.413
322.079
318.693
315.257
311.777
308.256
304.698
301.107
297.489
293.85
290.203
286.549
282.89
279.242
275.623
272.046
268.53
265.073
261.665
258.332
255.101
251.945
248.847
245.797
242.768
239.8
236.962
234.226
231.538
229.058
226.976
225.181
223.687
222.536
221.327
221.151
223.068
225.558
228.157
228.079
221.979
213.529
205.168
200.544
204.681
213.138
222.146
229.111
229.744
227.075
224.173
221.702
221.506
222.427
222.99
223.4
223.439
223.193
222.929
222.431
221.508
220.148
218.332
216.057
213.334
210.17
206.578
202.584
198.265
193.742
189.138
184.577
180.164
175.924
171.853
168.028
164.554
161.445
158.627
155.829
152.631
148.827
144.357
139
132.526
124.819
115.85
106.15
96.749
88.199
80.725
74.877
70.931
68.582
67.529
65.507
58.45
44.95
24.545
-2.051
-30.645
-60.961
-95.588
-136.69
-189.001
-255.228
-334.098
-420.23
-504.131
-569.942
-597.494
-574.619
-495.401
-367.627
-217.684
-71.399
45.844
117.046
144.068
134.457
101.653
59.243
15.525
-21.244
-47.547
-60.727
-61.52
-57.35
-52.995
-53.027
-58.957
-65.902
-71.433
-74.838
-76.114
-78.006
-81.779
-86.894
-92.894
-98.897
-104.188
-108.562
-111.889
-114.05
-115.106
-115.29
-114.766
-113.691
-112.261
-110.607
-108.868
-107.18
-105.602
-104.173
-102.93
-101.89
-101.068
-100.459
-100.051
-99.851
-99.866
-100.098
-100.53
-101.101
-101.757
-102.464
-103.175
-103.89
-104.564
-105.067
-105.431
-105.822
-106.388
-107.344
-108.698
-110.141
-111.568
-113.105
-114.582
-115.684
-116.045
-115.053
-112.731
-109.846
-106.809
-103.73
-100.978
-98.9
-98.034
-99.336
-102.861
-107.707
-113.335
-119.414
-125.565
-131.649
-137.255
-141.547
-144.423
-146.498
-148.166
-149.756
-151.478
-153.231
-155.129
-157.547
-160.515
-163.778
-167.145
-170.398
-173.44
-176.362
-179.158
-181.736
-184.069
-186.152
-187.988
-189.612
-191.012
-192.134
-192.938
-193.397
-193.496
-193.24
-192.629
-191.66
-190.33
-188.638
-186.586
-184.181
-181.432
-178.349
-174.947
-171.238
-167.242
-162.978
-158.471
-153.746
-148.827
-143.733
-138.488
-133.113
-127.634
-122.077
-116.469
-110.836
-105.202
-99.594
-94.037
-88.557
-83.177
-77.918
-72.801
-67.844
-63.066
-58.483
-54.109
-49.958
-46.041
-42.368
-38.946
-35.781
-32.878
-30.239
-27.865
-25.753
-23.901
-22.305
-20.958
-19.852
-18.981
-18.332
-17.897
-17.662
-17.617
-17.746
-18.036
-18.471
-19.037
-19.718
-20.497
-21.36
-22.289
-23.271
-24.29
-25.332
-26.384
-27.434
-28.469
-29.478
-30.452
-31.38
-32.255
-33.069
-33.817
-34.495
-35.099
-35.627
-36.078
-36.452
-36.752
-36.978
-37.135
-37.225
-37.253
-37.225
-37.148
-37.028
-36.872
-36.69
-36.49
-36.281
-36.073
-35.876
-35.697
-35.547
-35.435
-35.368
-35.355
-35.403
-35.519
-35.711
-35.983
-36.342
-36.792
-37.336
-37.977
-38.715
-39.551
-40.484
-41.512
-42.634
-43.845
-45.141
-46.52
-47.976
-49.504
-51.098
-52.752
-54.457
-56.206
-57.991
-59.804
-61.634
-63.473
-65.312
-67.143
-68.958
-70.749
-72.509
-74.23
-75.906
-77.531
-79.098
-80.602
-82.037
-83.398
-84.681
-85.883
-87.003
-88.038
-88.987
-89.848
-90.622
-91.308
-91.906
-92.413
-92.825
-93.139
-93.353
-93.467
-93.479
-93.386
-93.188
-92.887
-92.488
-91.994
-91.405
-90.722
-89.941
-89.062
-88.081
-86.996
-85.803
-84.497
-83.078
-81.548
-79.915
-78.183
-76.352
-74.417
-72.368
-70.197
-67.905
-65.492
-62.961
-60.326
-57.605
-54.83
-52.045
-49.281
-46.567
-43.924
-41.362
-38.899
-36.556
-34.338
-32.271
-30.374
-28.649
-27.114
-25.766
-24.552
-23.43
-22.34
-21.197
-19.967
-18.604
-17.022
-15.173
-12.999
-10.445
-7.542
-4.266
-0.509
3.688
8.211
12.827
17.019
20.379
22.722
23.697
22.937
20.409
16.178
10.737
5.249
0.546
-2.971
-4.761
-4.467
-2.332
1.158
4.717
5.891
2.697
-6.199
-22.48
-47.761
-82.927
-128.479
-182.268
-238.92
-294.318
-346.26
-396.398
-448.779
-501.953
-548.424
-574.398
-565.099
-515.883
-430.189
-317.918
-194.956
-73.329
34.894
114.833
160.288
170.594
152.491
122.825
93.359
69.531
52.225
36.343
19.713
3.643
-10.003
-18.445
-21.405
-20.645
-18.063
-15.953
-15.5
-16.852
-20.031
-24.634
-30.104
-35.992
-41.685
-46.522
-50.218
-52.732
-54.16
-54.79
-54.862
-54.568
-54.16
-53.868
-53.875
-54.312
-55.25
-56.712
-58.718
-61.292
-64.44
-68.16
-72.427
-77.202
-82.437
-88.081
-94.09
-100.409
-106.982
-113.748
-120.641
-127.608
-134.613
-141.625
-148.623
-155.59
-162.507
-169.362
-176.155
-182.884
-189.546
-196.135
-202.642
-209.058
-215.381
-221.605
-227.728
-233.743
-239.638
-245.401
-251.019
-256.479
-261.766
-266.863
-271.75
-276.412
-280.832
-284.998
-288.897
-292.516
-295.842
-298.862
-301.564
-303.937
-305.97
-307.651
-308.968
-309.912
-310.475
-310.649
-310.429
-309.811
-308.79
-307.364
-305.533
-303.298
-300.659
-297.619
-294.184
-290.359
-286.15
-281.569
-276.625
-271.331
-265.7
-259.748
-253.491
-246.948
-240.137
-233.078
-225.793
-218.303
-210.632
-202.805
-194.844
-186.776
-178.627
-170.422
-162.188
-153.95
-145.734
-137.565
-129.467
-121.464
-113.579
-105.834
-98.248
-90.843
-83.636
-76.644
-69.883
-63.368
-57.11
-51.12
-45.407
-39.978
-34.839
-29.993
-25.441
-21.184
-17.22
-13.546
-10.156
-7.044
-4.202
-1.62
0.713
2.809
4.682
6.345
7.814
9.105
10.232
11.213
12.064
12.801
13.441
14.001
14.497
14.943
15.357
15.751
16.141
16.538
16.955
17.404
17.893
18.432
19.029
19.691
20.422
21.227
22.11
23.071
24.11
25.227
26.42
27.685
29.017
30.411
31.859
33.355
34.889
36.454
38.037
39.629
41.219
42.794
44.342
45.853
47.312
48.71
50.033
51.271
52.414
53.451
54.373
55.171
55.835
56.36
56.737
56.961
57.025
56.926
56.66
56.225
55.621
54.849
53.909
52.804
51.536
50.112
48.536
46.815
44.955
42.964
40.853
38.634
36.319
33.923
31.459
28.942
26.389
23.814
21.235
18.665
16.12
13.612
11.159
8.776
6.478
4.28
2.199
0.251
-1.547
-3.177
-4.628
-5.886
-6.942
-7.787
-8.414
-8.819
-9.001
-8.957
-8.682
-8.174
-7.429
-6.448
-5.235
-3.796
-2.139
-0.276
1.779
4.008
6.389
8.91
11.566
14.359
17.301
20.387
23.606
26.95
30.41
33.968
37.6
41.256
44.87
48.397
51.808
55.093
58.245
61.239
64.03
66.569
68.816
70.757
72.38
73.645
74.497
74.896
74.858
74.504
73.985
73.407
72.847
72.312
71.892
71.794
72.079
72.671
73.366
73.772
73.581
72.704
70.884
67.761
63.418
58.147
52.598
47.948
45.384
46.091
51.109
61.179
74.967
89.254
102.304
112.442
119.597
126.313
128.011
117.334
89.904
38.433
-33.863
-117.649
-210.751
-303.376
-386.501
-452.757
-484.32
-472.235
-417.809
-326.077
-211.223
-87.232
36.686
148.444
233.93
285.023
298.98
282.542
252.755
221.712
195.429
174.982
155.148
134.436
114.852
98.629
88.974
86.579
89.883
96.773
104.722
111.914
117.507
121.068
122.685
122.532
120.756
118.155
115.551
113.488
112.351
112.138
112.629
113.733
115.379
117.207
118.904
120.262
121.099
121.433
121.314
120.707
119.59
117.991
115.938
113.468
110.624
107.407
103.833
99.949
95.805
91.471
87.015
82.475
77.879
73.253
68.614
63.979
59.36
54.762
50.184
45.637
41.133
36.683
32.301
27.991
23.758
19.606
15.536
11.549
7.651
3.849
0.151
-3.431
-6.886
-10.2
-13.359
-16.35
-19.162
-21.785
-24.21
-26.431
-28.441
-30.231
-31.796
-33.131
-34.227
-35.08
-35.684
-36.033
-36.124
-35.955
-35.524
-34.831
-33.876
-32.662
-31.19
-29.466
-27.492
-25.275
-22.821
-20.137
-17.23
-14.11
-10.787
-7.272
-3.58
0.278
4.285
8.428
12.69
17.054
21.504
26.023
30.594
35.199
39.823
44.445
49.05
53.62
58.137
62.585
66.947
71.208
75.352
79.367
83.238
86.955
90.506
93.88
97.07
100.066
102.861
105.451
107.831
109.997
111.947
113.683
115.204
116.513
117.614
118.511
119.211
119.72
120.045
120.196
120.18
120.01
119.694
119.244
118.673
117.991
117.212
116.347
115.41
114.412
113.365
112.282
111.175
110.054
108.93
107.815
106.719
105.652
104.622
103.639
102.71
101.842
101.041
100.314
99.663
99.094
98.608
98.209
97.898
97.675
97.542
97.497
97.541
97.67
97.882
98.175
98.545
98.988
99.499
100.074
100.709
101.397
102.133
102.913
103.73
104.579
105.452
106.344
107.248
108.159
109.069
109.974
110.866
111.741
112.593
113.418
114.211
114.967
115.68
116.347
116.962
117.522
118.022
118.459
118.829
119.13
119.359
119.515
119.596
119.601
119.529
119.378
119.149
118.84
118.451
117.982
117.435
116.811
116.111
115.339
114.496
113.587
112.613
111.578
110.484
109.337
108.137
106.889
105.597
104.267
102.904
101.517
100.113
98.7
97.286
95.879
94.488
93.117
91.77
90.449
89.157
87.895
86.666
85.472
84.318
83.208
82.15
81.147
80.203
79.318
78.492
77.719
76.993
76.311
75.671
75.079
74.541
74.058
73.629
73.251
72.907
72.571
72.211
71.777
71.221
70.502
69.573
68.409
66.994
65.314
63.361
61.111
58.54
55.647
52.444
48.953
45.223
41.32
37.324
33.368
29.577
26.049
22.891
20.168
17.903
16.117
14.822
14.026
13.77
14.097
14.92
16.09
17.407
18.536
19.048
18.48
16.389
12.338
6.224
-1.776
-11.512
-22.256
-32.669
-41.624
-48.33
-53.312
-58.909
-67.137
-78.258
-89.367
-96.713
-99.606
-101.13
-111.869
-143.089
-199.684
-283.607
-386.283
-492.65
-589.922
-659.336
-684.181
-656.881
-573.273
-443.802
-292.582
-143.108
-20.14
60.879
100.465
103.97
83.907
53.18
20.369
-5.216
-19.548
-20.464
-9.611
5.019
18.167
25.287
25.533
23.879
22.812
23.327
25.235
25.772
23.808
19.813
14.322
8.389
2.796
-2.185
-6.322
-9.439
-11.522
-12.68
-13.017
-12.649
-11.729
-10.379
-8.719
-6.871
-4.943
-3.046
-1.297
0.194
1.345
2.109
2.455
2.357
1.807
0.811
-0.616
-2.436
-4.618
-7.141
-9.972
-13.076
-16.402
-19.885
-23.477
-27.148
-30.871
-34.635
-38.431
-42.251
-46.098
-49.987
-53.927
-57.927
-61.989
-66.107
-70.282
-74.517
-78.815
-83.177
-87.601
-92.079
-96.602
-101.158
-105.735
-110.315
-114.878
-119.398
-123.853
-128.222
-132.484
-136.617
-140.6
-144.41
-148.025
-151.425
-154.587
-157.491
-160.114
-162.434
-164.431
-166.088
-167.387
-168.312
-168.849
-168.986
-168.715
-168.027
-166.918
-165.384
-163.424
-161.039
-158.234
-155.015
-151.39
-147.372
-142.975
-138.214
-133.108
-127.68
-121.951
-115.948
-109.696
-103.224
-96.561
-89.738
-82.785
-75.736
-68.621
-61.476
-54.332
-47.223
-40.181
-33.239
-26.427
-19.774
-13.309
-7.058
-1.044
4.709
10.181
15.355
20.215
24.745
28.935
32.775
36.259
39.382
42.142
44.539
46.577
48.26
49.596
50.595
51.267
51.621
51.671
51.432
50.919
50.156
49.154
47.927
46.506
44.92
43.194
41.36
39.428
37.398
35.303
33.178
31.001
28.759
26.446
24.04
21.584
19.148
16.71
14.223
11.848
9.775
7.9
6.24
4.833
3.292
2.671
3.998
5.808
7.657
6.855
0.179
-8.808
-17.734
-23.068
-19.953
-12.694
-4.936
0.818
0.438
-3.131
-6.907
-10.231
-11.286
-11.135
-11.145
-11.06
-11.06
-11.06
-10.789
-10.433
-10.141
-9.87
-9.615
-9.399
-9.224
-9.082
-8.975
-8.88
-8.773
-8.67
-8.589
-8.529
-8.497
-8.495
-8.528
-8.602
-8.726
-8.901
-9.131
-9.418
-9.765
-10.175
-10.651
-11.193
-11.802
-12.479
-13.224
-14.036
-14.913
-15.853
-16.854
-17.912
-19.023
-20.182
-21.379
-22.604
-23.846
-25.094
-26.336
-27.557
-28.743
-29.88
-30.957
-31.964
-32.891
-33.724
-34.452
-35.058
-35.53
-35.853
-36.013
-35.994
-35.785
-35.372
-34.75
-33.918
-32.869
-31.6
-30.099
-28.348
-26.334
-24.051
-21.49
-18.655
-15.556
-12.206
-8.639
-4.898
-1.023
2.943
6.961
11.003
15.03
19.013
22.924
26.713
30.34
33.772
36.991
40.01
42.866
45.587
48.22
50.832
53.491
56.311
59.392
62.809
66.649
70.932
75.717
81.153
87.273
93.993
101.096
108.126
114.644
120.413
125.04
128.003
129.13
128.429
126.361
124.062
122.439
122.077
123.754
128.081
134.902
143.524
152.358
158.761
160.211
154.324
138.288
109.3
67.338
15.24
-43.906
-105.864
-171.269
-246.371
-330.518
-416.982
-490.681
-527.995
-516.49
-456.813
-359.427
-242.732
-119.475
2.577
117.049
216.077
286.237
318.322
309.955
266.112
205.294
146.009
100.146
76.756
71.097
72.237
74.885
73.917
70.193
69.849
74.031
81.963
92.087
100.727
106.004
107.558
105.341
100.151
93.249
86.037
79.395
73.734
69.325
66.221
64.475
64.131
64.835
65.974
67.151
68.108
68.724
69.029
68.952
68.378
67.289
65.716
63.693
61.256
58.392
55.057
51.251
46.995
42.329
37.31
31.985
26.406
20.615
14.641
8.515
2.263
-4.097
-10.545
-17.072
-23.678
-30.354
-37.084
-43.858
-50.662
-57.489
-64.335
-71.197
-78.065
-84.931
-91.778
-98.591
-105.35
-112.037
-118.629
-125.103
-131.432
-137.592
-143.562
-149.323
-154.855
-160.14
-165.158
-169.892
-174.326
-178.445
-182.233
-185.677
-188.761
-191.474
-193.805
-195.745
-197.286
-198.421
-199.146
-199.455
-199.346
-198.819
-197.874
-196.512
-194.736
-192.549
-189.958
-186.971
-183.596
-179.844
-175.727
-171.257
-166.447
-161.314
-155.871
-150.136
-144.124
-137.851
-131.336
-124.596
-117.65
-110.515
-103.211
-95.758
-88.174
-80.481
-72.698
-64.845
-56.942
-49.009
-41.065
-33.131
-25.226
-17.369
-9.58
-1.878
5.719
13.192
20.524
27.698
34.698
41.507
48.111
54.495
60.645
66.548
72.191
77.561
82.647
87.439
91.927
96.101
99.955
103.482
106.676
109.534
112.052
114.229
116.065
117.562
118.723
119.552
120.055
120.241
120.118
119.699
118.995
118.022
116.793
115.327
113.641
111.754
109.687
107.462
105.101
102.627
100.065
97.441
94.781
92.111
89.457
86.847
84.306
81.863
79.541
77.367
75.364
73.556
71.965
70.612
69.514
68.69
68.154
67.919
67.995
68.391
69.112
70.161
71.539
73.245
75.275
77.623
80.28
83.236
86.478
89.991
93.756
97.753
101.96
106.353
110.905
115.589
120.377
125.239
130.144
135.061
139.958
144.806
149.57
154.221
158.726
163.057
167.184
171.08
174.718
178.076
181.131
183.864
186.26
188.304
189.983
191.288
192.211
192.747
192.894
192.652
192.024
191.014
189.633
187.894
185.814
183.412
180.71
177.73
174.499
171.042
167.387
163.559
159.584
155.485
151.294
147.038
142.749
138.459
134.2
130.004
125.901
121.92
118.085
114.417
110.931
107.646
104.58
101.751
99.188
96.915
94.946
93.297
91.971
90.956
90.235
89.776
89.536
89.478
89.563
89.753
90.021
90.331
90.656
90.975
91.249
91.435
91.506
91.441
91.249
90.986
90.696
90.443
90.311
90.348
90.627
91.239
92.253
93.75
95.779
98.33
101.435
105.181
109.52
114.294
119.188
123.666
127.26
129.641
130.476
129.506
126.756
122.45
117.126
111.707
107.032
103.82
102.465
102.819
104.126
105.173
104.388
99.963
89.942
71.845
43.699
4.634
-43.972
-98.367
-154.858
-211.035
-268.052
-327.947
-388.607
-443.503
-479.965
-484.469
-452.003
-384.307
-289.678
-183.132
-76.898
16.976
84.609
120.962
126.257
106.955
78.251
50.446
28.176
12.167
-2.283
-17.142
-31.199
-42.846
-49.598
-51.231
-49.415
-45.808
-42.366
-40.163
-39.367
-40.083
-42.027
-44.668
-47.553
-50.113
-51.766
-52.274
-51.596
-49.776
-47.028
-43.584
-39.643
-35.48
-31.34
-27.338
-23.543
-19.983
-16.657
-13.614
-10.905
-8.536
-6.511
-4.833
-3.498
-2.518
-1.89
-1.573
-1.522
-1.682
-2.004
-2.464
-3.052
-3.754
-4.563
-5.471
-6.476
-7.586
-8.81
-10.147
-11.596
-13.154
-14.818
-16.595
-18.494
-20.519
-22.674
-24.965
-27.388
-29.94
-32.611
-35.383
-38.24
-41.164
-44.136
-47.139
-50.159
-53.176
-56.177
-59.153
-62.088
-64.966
-67.762
-70.439
-72.974
-75.358
-77.587
-79.669
-81.609
-83.403
-85.062
-86.607
-88.042
-89.362
-90.539
-91.517
-92.261
-92.758
-93.008
-93.039
-92.854
-92.426
-91.729
-90.732
-89.4
-87.714
-85.621
-83.038
-79.932
-76.314
-72.247
-67.864
-63.254
-58.47
-53.555
-48.52
-43.403
-38.279
-33.202
-28.222
-23.402
-18.803
-14.529
-10.742
-7.522
-4.89
-2.802
-1.127
0.219
1.272
2.073
2.644
3.019
3.25
3.362
3.35
3.237
3.058
2.889
2.855
3.021
3.393
3.936
4.556
5.185
5.796
6.346
6.796
7.115
7.268
7.252
7.093
6.794
6.342
5.705
4.821
3.662
2.227
0.528
-1.398
-3.523
-5.833
-8.307
-10.914
-13.634
-16.453
-19.369
-22.399
-25.547
-28.807
-32.168
-35.611
-39.122
-42.694
-46.317
-49.983
-53.684
-57.408
-61.146
-64.895
-68.642
-72.375
-76.074
-79.717
-83.283
-86.753
-90.107
-93.326
-96.391
-99.283
-101.986
-104.487
-106.771
-108.825
-110.636
-112.191
-113.481
-114.495
-115.227
-115.67
-115.821
-115.676
-115.237
-114.504
-113.483
-112.179
-110.601
-108.759
-106.663
-104.328
-101.769
-99
-96.042
-92.912
-89.633
-86.227
-82.718
-79.132
-75.494
-71.831
-68.169
-64.535
-60.955
-57.453
-54.054
-50.781
-47.656
-44.702
-41.94
-39.389
-37.067
-34.99
-33.172
-31.624
-30.354
-29.367
-28.663
-28.241
-28.098
-28.23
-28.628
-29.284
-30.19
-31.334
-32.707
-34.294
-36.08
-38.046
-40.174
-42.441
-44.829
-47.311
-49.864
-52.463
-55.085
-57.707
-60.308
-62.861
-65.334
-67.699
-69.919
-71.963
-73.809
-75.427
-76.796
-77.902
-78.741
-79.327
-79.686
-79.842
-79.818
-79.64
-79.334
-78.942
-78.503
-78.046
-77.601
-77.178
-76.793
-76.46
-76.187
-75.968
-75.76
-75.476
-74.995
-74.195
-72.96
-71.194
-68.762
-65.462
-61.204
-56.003
-49.995
-43.485
-36.678
-29.636
-22.529
-15.619
-9.049
-2.914
3.009
9.365
16.517
24.452
33.077
42.135
51.333
60.534
69.026
75.385
78.318
76.76
70.036
57.948
39.899
14.618
-18.73
-60.451
-108.957
-160.509
-212.545
-262.969
-313.311
-368.881
-429.294
-489.467
-537.152
-553.235
-527.997
-462.078
-364.182
-249.974
-130.211
-10.463
102.813
198.537
261.986
281.161
252.661
189.293
114.623
51.356
15.676
9.539
21.844
37.859
46.549
44.23
34.589
24.774
18.622
16.165
15.664
14.187
10.691
5.941
0.667
-4.328
-8.467
-11.55
-13.487
-14.255
-14.042
-13.148
-11.782
-10.113
-8.333
-6.627
-5.129
-3.946
-3.132
-2.681
-2.607
-2.934
-3.654
-4.753
-6.213
-7.995
-10.058
-12.367
-14.871
-17.513
-20.239
-22.991
-25.727
-28.421
-31.053
-33.609
-36.083
-38.469
-40.77
-42.995
-45.148
-47.231
-49.249
-51.202
-53.096
-54.936
-56.727
-58.475
-60.183
-61.852
-63.478
-65.058
-66.585
-68.052
-69.451
-70.769
-71.998
-73.129
-74.155
-75.067
-75.86
-76.524
-77.051
-77.434
-77.666
-77.736
-77.638
-77.362
-76.901
-76.249
-75.4
-74.35
-73.094
-71.631
-69.958
-68.075
-65.983
-63.682
-61.176
-58.467
-55.559
-52.457
-49.169
-45.701
-42.062
-38.261
-34.308
-30.214
-25.992
-21.653
-17.211
-12.681
-8.075
-3.41
1.3
6.039
10.791
15.541
20.272
24.969
29.617
34.201
38.707
43.122
47.432
51.627
55.696
59.628
63.416
67.052
70.528
73.841
76.984
79.954
82.749
85.368
87.809
90.073
92.163
94.079
95.826
97.407
98.828
100.095
101.215
102.194
103.041
103.764
104.372
104.873
105.276
105.592
105.83
105.998
106.106
106.162
106.176
106.155
106.107
106.04
105.96
105.874
105.787
105.705
105.634
105.577
105.54
105.525
105.537
105.579
105.652
105.76
105.902
106.081
106.298
106.551
106.841
107.168
107.529
107.925
108.354
108.814
109.303
109.819
110.36
110.924
111.508
112.109
112.726
113.356
113.997
114.647
115.303
115.964
116.628
117.293
117.955
118.614
119.266
119.909
120.54
121.156
121.754
122.332
122.887
123.416
123.917
124.386
124.821
125.219
125.577
125.89
126.155
126.368
126.525
126.623
126.658
126.627
126.525
126.349
126.097
125.764
125.347
124.842
124.246
123.555
122.767
121.878
120.887
119.791
118.59
117.285
115.876
114.364
112.752
111.041
109.234
107.333
105.344
103.27
101.116
98.889
96.595
94.244
91.849
89.42
86.969
84.51
82.056
79.62
77.213
74.848
72.531
70.272
68.08
65.967
63.943
62.024
60.223
58.552
57.026
55.654
54.446
53.405
52.532
51.824
51.283
50.913
50.727
50.738
50.951
51.371
51.996
52.81
53.793
54.916
56.131
57.393
58.661
59.893
61.065
62.161
63.169
64.072
64.836
65.428
65.824
66.017
66.025
65.884
65.627
65.309
65.011
64.808
64.808
65.096
65.705
66.669
67.989
69.668
71.81
74.515
77.723
81.323
85.086
88.591
91.514
93.515
94.029
92.653
89.375
84.296
77.838
71.173
65.55
61.901
61.435
63.543
65.342
66.201
66.135
65.869
69.233
72.651
66.358
43.137
-4.655
-74.958
-154.255
-234.426
-310.541
-378.757
-440.468
-488.61
-507.795
-489.593
-430.538
-334.642
-217.45
-93.701
23.46
119.248
184.62
217.275
222.354
210.524
190.827
167.176
135.633
94.199
49.034
8.608
-14.754
-15.544
-0.734
21.44
41.758
55.488
65.69
74.671
83.666
92.074
96.822
96.873
92.905
86.254
79.028
72.257
66.178
61.231
57.579
55.23
54.083
53.636
53.273
52.676
51.741
50.436
48.812
46.864
44.532
41.852
38.893
35.698
32.281
28.615
24.653
20.384
15.853
11.117
6.239
1.282
-3.72
-8.744
-13.762
-18.75
-23.685
-28.546
-33.322
-38.01
-42.601
-47.078
-51.425
-55.629
-59.688
-63.607
-67.394
-71.055
-74.592
-78.005
-81.292
-84.452
-87.48
-90.37
-93.113
-95.697
-98.115
-100.36
-102.428
-104.315
-106.014
-107.522
-108.831
-109.94
-110.843
-111.535
-112.013
-112.272
-112.306
-112.114
-111.692
-111.039
-110.153
-109.034
-107.682
-106.097
-104.28
-102.233
-99.958
-97.459
-94.738
-91.801
-88.652
-85.301
-81.754
-78.021
-74.113
-70.042
-65.82
-61.46
-56.975
-52.38
-47.69
-42.918
-38.081
-33.192
-28.269
-23.327
-18.382
-13.45
-8.548
-3.689
1.109
5.833
10.467
14.998
19.413
23.699
27.843
31.833
35.658
39.309
42.774
46.046
49.117
51.98
54.629
57.06
59.271
61.257
63.02
64.557
65.87
66.96
67.831
68.485
68.926
69.161
69.194
69.032
68.683
68.154
67.453
66.588
65.57
64.407
63.109
61.687
60.151
58.513
56.785
54.978
53.105
51.179
49.212
47.218
45.21
43.201
41.205
39.233
37.299
35.415
33.594
31.847
30.185
28.62
27.161
25.819
24.602
23.518
22.576
21.782
21.143
20.664
20.351
20.209
20.24
20.448
20.833
21.396
22.138
23.056
24.147
25.408
26.833
28.418
30.153
32.032
34.044
36.179
38.425
40.77
43.201
45.703
48.263
50.866
53.497
56.141
58.783
61.409
64.003
66.549
69.034
71.442
73.759
75.97
78.06
80.016
81.825
83.477
84.96
86.266
87.386
88.312
89.038
89.561
89.876
89.982
89.876
89.559
89.036
88.311
87.392
86.286
85.002
83.552
81.948
80.202
78.327
76.336
74.242
72.059
69.806
67.498
65.153
62.79
60.429
58.092
55.801
53.575
51.433
49.39
47.461
45.66
44
42.489
41.135
39.946
38.931
38.1
37.459
37.01
36.754
36.685
36.804
37.106
37.581
38.217
39.005
39.936
41.015
42.251
43.642
45.181
46.855
48.651
50.552
52.534
54.551
56.539
58.428
60.167
61.73
63.098
64.243
65.125
65.697
65.923
65.795
65.305
64.424
63.095
61.289
59.036
56.438
53.656
50.852
48.108
45.51
43.203
41.246
39.624
38.216
36.649
34.569
31.837
28.251
23.596
17.982
11.611
4.965
-0.868
-5.069
-7.212
-6.654
-3.006
3.312
11.543
20.117
26.242
27.657
22.715
9.03
-15.487
-51.377
-98.714
-155.062
-214.53
-273.897
-331.491
-386.108
-440.037
-489.326
-524.068
-535.495
-513.793
-459.88
-386.185
-304.626
-228.363
-163.558
-107.592
-60.51
-22.549
5.609
20.874
23.4
15.79
0.415
-19.515
-40.501
-59.898
-75.838
-87.25
-94.217
-97.523
-97.876
-96.09
-93.424
-91.081
-89.831
-90.059
-91.621
-94.015
-96.831
-99.7
-102.151
-103.765
-104.308
-103.702
-102.054
-99.597
-96.553
-93.132
-89.548
-85.998
-82.611
-79.467
-76.619
-74.104
-71.965
-70.234
-68.932
-68.066
-67.642
-67.667
-68.132
-69.016
-70.275
-71.859
-73.717
-75.796
-78.06
-80.483
-83.045
-85.732
-88.534
-91.447
-94.47
-97.607
-100.856
-104.211
-107.667
-111.217
-114.858
-118.589
-122.409
-126.317
-130.31
-134.379
-138.515
-142.704
-146.931
-151.178
-155.425
-159.65
-163.833
-167.956
-172.002
-175.954
-179.799
-183.519
-187.1
-190.528
-193.789
-196.867
-199.748
-202.417
-204.861
-207.067
-209.025
-210.724
-212.157
-213.315
-214.192
-214.784
-215.085
-215.093
-214.805
-214.222
-213.343
-212.17
-210.707
-208.959
-206.933
-204.639
-202.085
-199.283
-196.244
-192.981
-189.509
-185.841
-181.991
-177.976
-173.813
-169.517
-165.107
-160.602
-156.019
-151.377
-146.697
-141.996
-137.293
-132.606
-127.953
-123.352
-118.818
-114.368
-110.018
-105.782
-101.673
-97.706
-93.891
-90.238
-86.757
-83.454
-80.335
-77.404
-74.664
-72.116
-69.76
-67.596
-65.621
-63.832
-62.224
-60.791
-59.528
-58.426
-57.477
-56.672
-56
-55.451
-55.015
-54.68
-54.436
-54.272
-54.176
-54.137
-54.145
-54.188
-54.257
-54.341
-54.43
-54.516
-54.591
-54.647
-54.679
-54.681
-54.65
-54.584
-54.479
-54.336
-54.155
-53.937
-53.682
-53.395
-53.079
-52.737
-52.374
-51.995
-51.607
-51.216
-50.826
-50.445
-50.08
-49.735
-49.416
-49.13
-48.882
-48.675
-48.516
-48.409
-48.355
-48.36
-48.426
-48.553
-48.744
-48.998
-49.314
-49.689
-50.122
-50.609
-51.144
-51.723
-52.34
-52.987
-53.657
-54.344
-55.038
-55.732
-56.417
-57.084
-57.727
-58.336
-58.905
-59.425
-59.89
-60.294
-60.631
-60.897
-61.086
-61.197
-61.226
-61.173
-61.036
-60.817
-60.516
-60.135
-59.678
-59.148
-58.55
-57.889
-57.172
-56.404
-55.595
-54.754
-53.888
-53.007
-52.123
-51.245
-50.383
-49.547
-48.746
-47.989
-47.283
-46.636
-46.053
-45.54
-45.102
-44.742
-44.462
-44.264
-44.149
-44.114
-44.157
-44.271
-44.448
-44.678
-44.951
-45.258
-45.585
-45.919
-46.249
-46.563
-46.852
-47.106
-47.31
-47.452
-47.514
-47.48
-47.334
-47.06
-46.642
-46.064
-45.315
-44.386
-43.274
-41.975
-40.482
-38.787
-36.874
-34.731
-32.356
-29.749
-26.918
-23.876
-20.641
-17.242
-13.723
-10.122
-6.48
-2.832
0.794
4.37
7.875
11.276
14.53
17.603
20.466
23.113
25.564
27.834
29.939
31.905
33.767
35.58
37.428
39.378
41.481
43.784
46.268
48.974
52.032
55.431
59.065
62.72
65.966
68.475
70.135
70.657
69.612
66.93
62.69
57.286
51.731
46.71
42.506
39.774
39.138
40.463
43.253
46.404
47.829
45.833
39.001
24.952
1.061
-33.177
-75.814
-123.959
-173.575
-224.485
-283.522
-354.795
-436.958
-522.005
-587.257
-609.479
-577.132
-486.671
-353.505
-205.929
-66.459
43.603
111.854
141.229
135.298
102.567
57.134
9.09
-28.761
-46.678
-44.946
-28.561
-8.844
3.816
6.746
2.005
-3.981
-6.345
-4.936
-1.364
1.542
2.287
1.376
-0.49
-2.554
-4.315
-5.585
-6.225
-6.151
-5.421
-4.186
-2.557
-0.636
1.443
3.514
5.408
7.025
8.332
9.329
10.005
10.308
10.201
9.684
8.783
7.519
5.91
3.963
1.686
-0.872
-3.652
-6.593
-9.628
-12.711
-15.813
-18.9
-21.944
-24.923
-27.816
-30.616
-33.326
-35.942
-38.454
-40.853
-43.127
-45.271
-47.288
-49.176
-50.934
-52.562
-54.054
-55.406
-56.615
-57.67
-58.563
-59.281
-59.81
-60.137
-60.253
-60.148
-59.813
-59.24
-58.422
-57.35
-56.019
-54.422
-52.552
-50.404
-47.971
-45.248
-42.231
-38.917
-35.305
-31.391
-27.178
-22.666
-17.857
-12.754
-7.363
-1.689
4.26
10.475
16.947
23.664
30.615
37.783
45.153
52.709
60.433
68.305
76.306
84.415
92.611
100.873
109.181
117.512
125.845
134.161
142.437
150.654
158.792
166.831
174.754
182.543
190.181
197.655
204.95
212.053
218.955
225.645
232.116
238.362
244.377
250.159
255.706
261.018
266.097
270.946
275.569
279.973
284.165
288.152
291.945
295.552
298.985
302.255
305.372
308.347
311.193
313.921
316.542
319.067
321.506
323.87
326.166
328.405
330.593
332.738
334.845
336.92
338.966
340.986
342.984
344.96
346.914
348.847
350.756
352.64
354.496
356.319
358.107
359.853
361.554
363.204
364.798
366.332
367.801
369.201
370.527
371.777
372.948
374.035
375.038
375.954
376.781
377.522
378.176
378.746
379.234
379.645
379.983
380.255
380.467
380.626
380.739
380.813
380.859
380.885
380.901
380.917
380.943
380.99
381.068
381.188
381.359
381.588
381.882
382.248
382.69
383.212
383.814
384.496
385.261
386.109
387.042
388.059
389.157
390.333
391.586
392.91
394.294
395.727
397.191
398.67
400.149
401.613
403.046
404.434
405.756
407
408.155
409.205
410.133
410.913
411.51
411.899
412.072
412.028
411.776
411.324
410.672
409.835
408.837
407.69
406.396
404.932
403.252
401.329
399.156
396.741
394.121
391.305
388.279
385.027
381.531
377.767
373.729
369.378
364.643
359.505
353.984
348.149
342.133
336.03
329.897
323.782
317.702
311.696
305.836
300.18
294.773
289.679
284.95
280.676
277.002
273.994
271.659
269.95
268.732
267.912
267.45
267.302
267.445
267.862
268.499
269.32
270.311
271.415
272.57
273.685
274.601
275.21
275.467
275.361
274.958
274.313
273.411
272.248
270.803
269.016
266.853
264.255
261.145
257.525
253.435
248.953
244.256
239.465
234.675
230.104
225.801
221.667
217.58
213.157
208.005
202.071
195.216
187.036
177.528
167.17
156.743
147.701
141.639
138.279
137.46
141.065
149.091
163.339
184.897
206.788
223.461
228.047
212.366
178.514
130.462
73.614
15.959
-40.684
-98.802
-162.37
-231.017
-298.895
-353.466
-375.572
-356.501
-295.122
-196.312
-80.429
35.889
138.021
208.075
243.439
246.577
224.3
193.872
165.139
142.325
126.814
113.201
99.231
86.073
74.912
68.365
66.778
68.25
71.019
73.036
73.196
71.49
67.917
62.781
56.637
49.969
43.403
37.601
32.856
29.23
26.71
25.111
24.262
24.048
24.258
24.7
25.247
25.755
26.148
26.395
26.424
26.185
25.643
24.751
23.488
21.864
19.875
17.527
14.842
11.825
8.504
4.914
1.088
-2.926
-7.093
-11.394
-15.81
-20.329
-24.944
-29.646
-34.436
-39.325
-44.316
-49.41
-54.607
-59.9
-65.285
-70.761
-76.327
-81.983
-87.725
-93.544
-99.43
-105.373
-111.358
-117.369
-123.387
-129.39
-135.358
-141.272
-147.116
-152.874
-158.53
-164.067
-169.47
-174.726
-179.82
-184.738
-189.467
-193.991
-198.3
-202.382
-206.228
-209.83
-213.182
-216.279
-219.115
-221.69
-224.001
-226.049
-227.836
-229.363
-230.634
-231.656
-232.434
-232.979
-233.298
-233.404
-233.307
-233.02
-232.557
-231.93
-231.154
-230.242
-229.208
-228.065
-226.827
-225.507
-224.119
-222.675
-221.189
-219.671
-218.134
-216.588
-215.043
-213.509
-211.993
-210.502
-209.044
-207.623
-206.245
-204.912
-203.628
-202.395
-201.214
-200.084
-199.006
-197.978
-196.996
-196.06
-195.164
-194.306
-193.482
-192.689
-191.923
-191.181
-190.459
-189.757
-189.071
-188.4
-187.743
-187.101
-186.472
-185.859
-185.263
-184.687
-184.134
-183.607
-183.113
-182.656
-182.243
-181.879
-181.571
-181.328
-181.156
-181.063
-181.058
-181.15
-181.347
-181.657
-182.09
-182.653
-183.354
-184.2
-185.197
-186.351
-187.667
-189.147
-190.794
-192.61
-194.594
-196.746
-199.062
-201.54
-204.173
-206.956
-209.88
-212.937
-216.117
-219.408
-222.8
-226.279
-229.833
-233.446
-237.106
-240.796
-244.501
-248.204
-251.891
-255.544
-259.148
-262.688
-266.149
-269.516
-272.777
-275.92
-278.934
-281.808
-284.533
-287.102
-289.508
-291.745
-293.81
-295.7
-297.416
-298.958
-300.33
-301.535
-302.58
-303.471
-304.213
-304.816
-305.286
-305.632
-305.865
-305.994
-306.03
-305.986
-305.873
-305.705
-305.496
-305.258
-305.002
-304.74
-304.482
-304.236
-304.01
-303.809
-303.639
-303.503
-303.407
-303.355
-303.353
-303.405
-303.514
-303.683
-303.913
-304.204
-304.554
-304.958
-305.412
-305.91
-306.452
-307.034
-307.656
-308.318
-309.017
-309.755
-310.528
-311.329
-312.143
-312.952
-313.732
-314.466
-315.14
-315.745
-316.282
-316.761
-317.206
-317.642
-318.101
-318.607
-319.169
-319.791
-320.471
-321.208
-322.015
-322.913
-323.924
-325.083
-326.417
-327.947
-329.698
-331.636
-333.669
-335.696
-337.574
-339.183
-340.475
-341.36
-341.748
-341.668
-341.203
-340.513
-339.893
-339.499
-339.369
-339.702
-340.627
-342.088
-343.975
-345.775
-346.731
-346.435
-344.512
-340.456
-334.115
-325.691
-315.779
-305.911
-297.893
-293.247
-293.962
-302.246
-319.936
-346.973
-380.627
-417.174
-452.783
-489.276
-533.64
-588.753
-653.992
-716.416
-750.375
-737.794
-668.065
-546.894
-401.906
-260.052
-145.738
-74.031
-41.886
-41.769
-61.948
-91.167
-122.868
-149.793
-168.622
-176.821
-174.804
-169.107
-164.145
-163.902
-168.964
-174.388
-177.456
-177.036
-173.727
-170.556
-168.838
-168.441
-169.023
-169.757
-170.22
-170.35
-169.843
-168.481
-166.268
-163.327
-159.91
-156.246
-152.495
-148.803
-145.305
-142.111
-139.287
-136.87
-134.858
-133.253
-132.06
-131.274
-130.894
-130.916
-131.319
-132.074
-133.138
-134.458
-135.974
-137.631
-139.387
-141.219
-143.106
-145.036
-147.003
-149.004
-151.044
-153.132
-155.269
-157.452
-159.676
-161.94
-164.246
-166.596
-168.995
-171.447
-173.953
-176.514
-179.124
-181.779
-184.469
-187.183
-189.907
-192.623
-195.317
-197.975
-200.584
-203.13
-205.599
-207.977
-210.249
-212.4
-214.415
-216.276
-217.965
-219.463
-220.754
-221.819
-222.642
-223.206
-223.495
-223.495
-223.191
-222.57
-221.619
-220.328
-218.686
-216.684
-214.314
-211.572
-208.452
-204.954
-201.076
-196.821
-192.192
-187.196
-181.839
-176.132
-170.086
-163.714
-157.031
-150.054
-142.801
-135.293
-127.552
-119.601
-111.465
-103.171
-94.745
-86.216
-77.613
-68.966
-60.305
-51.66
-43.062
-34.541
-26.127
-17.851
-9.741
-1.826
5.869
13.317
20.494
27.377
33.947
40.183
46.07
51.592
56.736
61.493
65.854
69.813
73.367
76.515
79.258
81.599
83.544
85.101
86.279
87.09
87.548
87.668
87.468
86.965
86.182
85.139
83.86
82.369
80.69
78.849
76.873
74.786
72.616
70.389
68.131
65.867
63.622
61.42
59.285
57.238
55.302
53.494
51.834
50.339
49.023
47.899
46.981
46.278
45.798
45.55
45.538
45.766
46.238
46.952
47.908
49.104
50.534
52.192
54.071
56.161
58.453
60.935
63.595
66.419
69.394
72.505
75.736
79.07
82.491
85.983
89.527
93.108
96.709
100.312
103.904
107.468
110.991
114.459
117.859
121.177
124.402
127.523
130.529
133.408
136.153
138.756
141.21
143.51
145.654
147.639
149.462
151.125
152.627
153.972
155.162
156.199
157.089
157.838
158.454
158.948
159.329
159.61
159.802
159.918
159.972
159.977
159.946
159.89
159.821
159.755
159.704
159.684
159.709
159.797
159.963
160.228
160.608
161.118
161.772
162.58
163.551
164.695
166.017
167.521
169.21
171.091
173.168
175.445
177.926
180.609
183.49
186.563
189.821
193.255
196.854
200.601
204.489
208.514
212.679
216.992
221.452
226.052
230.784
235.637
240.594
245.625
250.685
255.708
260.64
265.448
270.104
274.592
278.883
282.937
286.716
290.196
293.357
296.182
298.628
300.628
302.164
303.273
304.052
304.663
305.23
305.804
306.475
307.398
308.636
310.167
311.816
313.168
313.881
313.82
312.805
310.65
307.455
303.474
299.338
296.267
295.277
297.013
302.141
310.916
322.793
336.818
351.133
362.855
369.35
368.138
356.546
332.628
296.879
251.908
201.282
149.804
97.87
41.143
-20.505
-84.873
-142.398
-172.852
-163.292
-108.12
-11.459
104.842
218.722
310.828
367.402
390.616
389.44
377.07
365.67
358.959
355.984
352.137
344.392
334.107
323.878
317.021
315.095
317.072
321.427
326.632
331.293
334.733
336.706
336.967
335.627
333.094
329.778
326.244
323.113
320.716
319.177
318.542
318.705
319.552
321.016
322.916
325.032
327.198
329.262
331.155
332.873
334.381
335.629
336.561
337.126
337.309
337.118
336.546
335.586
334.229
332.472
330.35
327.913
325.208
322.294
319.205
315.963
312.592
309.111
305.533
301.871
298.123
294.28
290.344
286.32
282.215
278.043
273.804
269.501
265.134
260.704
256.212
251.667
247.073
242.441
237.782
233.113
228.451
223.818
219.232
214.712
210.274
205.932
201.701
197.596
193.631
189.818
186.171
182.703
179.427
176.356
173.503
170.878
168.492
166.353
164.468
162.842
161.48
160.385
159.558
159.001
158.712
158.689
158.928
159.426
160.176
161.168
162.393
163.84
165.496
167.346
169.376
171.57
173.912
176.385
178.972
181.655
184.419
187.244
190.113
193.009
195.912
198.806
201.672
204.494
207.255
209.939
212.532
215.019
217.387
219.625
221.722
223.666
225.45
227.065
228.505
229.766
230.844
231.736
232.443
232.964
233.301
233.458
233.438
233.247
232.89
232.373
231.703
230.889
229.937
228.856
227.655
226.343
224.929
223.422
221.832
220.167
218.437
216.651
214.817
212.943
211.038
209.108
207.162
205.205
203.243
201.283
199.329
197.385
195.454
193.539
191.642
189.762
187.902
186.06
184.235
182.426
180.632
178.851
177.079
175.315
173.555
171.797
170.038
168.275
166.505
164.725
162.931
161.122
159.295
157.447
155.576
153.679
151.754
149.8
147.814
145.795
143.741
141.652
139.526
137.362
135.161
132.92
130.642
128.327
125.974
123.587
121.165
118.711
116.227
113.713
111.173
108.606
106.015
103.401
100.764
98.104
95.423
92.719
89.995
87.249
84.483
81.696
78.888
76.058
73.206
70.333
67.437
64.519
61.576
58.609
55.62
52.61
49.579
46.528
43.46
40.375
37.276
34.164
31.041
27.908
24.765
21.617
18.465
15.314
12.169
9.037
5.925
2.842
-0.204
-3.203
-6.15
-9.038
-11.861
-14.617
-17.304
-19.919
-22.459
-24.92
-27.295
-29.581
-31.775
-33.873
-35.878
-37.791
-39.613
-41.352
-43.018
-44.621
-46.163
-47.639
-49.035
-50.34
-51.559
-52.697
-53.763
-54.772
-55.733
-56.679
-57.662
-58.731
-59.938
-61.314
-62.855
-64.577
-66.512
-68.696
-71.193
-74.03
-77.184
-80.652
-84.448
-88.583
-93.087
-97.912
-102.908
-107.943
-112.888
-117.643
-122.219
-126.536
-130.413
-133.789
-136.675
-139.282
-142.101
-145.494
-149.585
-154.601
-160.808
-168.245
-176.875
-186.091
-194.602
-201.358
-205.619
-206.701
-204.282
-198.691
-190.712
-182.259
-176.352
-175.611
-182.592
-200.002
-229.762
-272.995
-328.474
-391.512
-456.695
-519.347
-579.376
-640.844
-704.364
-766.954
-815.342
-829.006
-794.836
-706.333
-574.421
-425.903
-287.226
-184.486
-128.502
-112.776
-124.27
-143.331
-158.584
-168.306
-174.263
-182.965
-195.751
-209.694
-222.34
-230.099
-232.094
-230.1
-225.601
-220.403
-216.348
-214.123
-213.93
-215.842
-219.358
-223.83
-228.769
-233.567
-237.585
-240.535
-242.329
-242.966
-242.654
-241.596
-239.915
-237.822
-235.528
-233.175
-230.918
-228.853
-227.02
-225.498
-224.349
-223.61
-223.311
-223.456
-224.02
-224.995
-226.361
-228.084
-230.141
-232.49
-235.085
-237.882
-240.82
-243.85
-246.945
-250.073
-253.216
-256.362
-259.501
-262.631
-265.767
-268.912
-272.07
-275.245
-278.431
-281.629
-284.842
-288.072
-291.322
-294.593
-297.881
-301.178
-304.479
-307.773
-311.049
-314.292
-317.483
-320.605
-323.644
-326.584
-329.411
-332.112
-334.669
-337.068
-339.293
-341.33
-343.162
-344.773
-346.147
-347.268
-348.122
-348.696
-348.977
-348.954
-348.617
-347.958
-346.969
-345.645
-343.983
-341.979
-339.633
-336.945
-333.918
-330.556
-326.865
-322.854
-318.532
-313.91
-309.001
-303.819
-298.381
-292.703
-286.804
-280.704
-274.423
-267.982
-261.405
-254.715
-247.934
-241.088
-234.2
-227.297
-220.401
-213.536
-206.727
-199.994
-193.36
-186.845
-180.467
-174.243
-168.19
-162.321
-156.649
-151.185
-145.937
-140.913
-136.118
-131.557
-127.229
-123.137
-119.278
-115.649
-112.245
-109.06
-106.086
-103.314
-100.734
-98.334
-96.103
-94.028
-92.094
-90.288
-88.595
-87.001
-85.49
-84.048
-82.661
-81.314
-79.996
-78.693
-77.395
-76.092
-74.774
-73.434
-72.066
-70.666
-69.228
-67.751
-66.234
-64.676
-63.08
-61.448
-59.782
-58.089
-56.374
-54.643
-52.903
-51.163
-49.43
-47.714
-46.023
-44.366
-42.754
-41.196
-39.699
-38.275
-36.93
-35.672
-34.51
-33.45
-32.497
-31.655
-30.928
-30.317
-29.824
-29.446
-29.183
-29.03
-28.984
-29.04
-29.19
-29.427
-29.743
-30.128
-30.572
-31.065
-31.595
-32.151
-32.719
-33.289
-33.847
-34.383
-34.884
-35.339
-35.738
-36.069
-36.323
-36.49
-36.563
-36.533
-36.395
-36.141
-35.769
-35.275
-34.66
-33.923
-33.066
-32.092
-31.005
-29.812
-28.517
-27.127
-25.649
-24.091
-22.462
-20.77
-19.025
-17.237
-15.417
-13.575
-11.721
-9.866
-8.018
-6.187
-4.381
-2.607
-0.874
0.812
2.447
4.025
5.544
7
8.389
9.71
10.963
12.15
13.273
14.335
15.337
16.284
17.185
18.048
18.877
19.674
20.439
21.169
21.869
22.539
23.179
23.789
24.368
24.92
25.463
26.009
26.573
27.162
27.766
28.378
29
29.63
30.265
30.901
31.52
32.108
32.672
33.211
33.715
34.16
34.483
34.63
34.552
34.207
33.596
32.724
31.577
30.162
28.482
26.536
24.386
22.093
19.678
17.183
14.609
11.974
9.429
7.052
4.837
2.696
0.253
-2.914
-6.923
-11.812
-17.635
-24.219
-31.389
-38.787
-45.233
-49.35
-50.447
-48.404
-43.704
-37.352
-30.218
-23.613
-20.283
-23.684
-36.755
-59.656
-89.578
-124.046
-160.907
-202.575
-255.152
-317.042
-382.517
-438.442
-462.345
-442.723
-376.793
-270.82
-147.98
-29.566
67.359
130.153
160.835
167.308
160.185
149.349
137.717
124.609
106.861
83.638
58.159
33.827
14.214
1.374
-5.227
-6.421
-3.085
2.666
8.84
14.433
18.705
21.514
23.269
23.942
23.428
22.505
21.97
22.191
23.467
25.63
28.272
31.309
34.701
38.152
41.438
44.413
46.911
48.947
50.591
51.825
52.643
53.067
53.096
52.747
52.059
51.061
49.791
48.304
46.65
44.86
42.951
40.934
38.811
36.584
34.25
31.797
29.208
26.484
23.634
20.666
17.589
14.403
11.103
7.693
4.174
0.548
-3.18
-7.003
-10.912
-14.891
-18.921
-22.98
-27.048
-31.102
-35.125
-39.098
-43.002
-46.819
-50.529
-54.113
-57.556
-60.836
-63.933
-66.829
-69.505
-71.941
-74.124
-76.037
-77.668
-79.004
-80.038
-80.76
-81.165
-81.247
-81.003
-80.431
-79.53
-78.302
-76.748
-74.872
-72.68
-70.181
-67.383
-64.299
-60.941
-57.322
-53.459
-49.368
-45.065
-40.57
-35.899
-31.073
-26.111
-21.032
-15.857
-10.607
-5.301
0.04
5.399
10.755
16.092
21.393
26.642
31.825
36.928
41.939
46.845
51.636
56.3
60.83
65.217
69.454
73.535
77.456
81.213
84.805
88.232
91.492
94.588
97.523
100.298
102.919
105.389
107.714
109.899
111.951
113.875
115.679
117.37
118.953
120.435
121.822
123.119
124.332
125.465
126.522
127.507
128.423
129.275
130.065
130.796
131.472
132.094
132.665
133.187
133.66
134.087
134.466
134.799
135.083
135.32
135.507
135.642
135.726
135.755
135.727
135.641
135.495
135.286
135.014
134.676
134.27
133.797
133.256
132.647
131.972
131.233
130.433
129.575
128.662
127.7
126.692
125.645
124.562
123.45
122.315
121.163
120.001
118.836
117.677
116.532
115.411
114.322
113.275
112.281
111.349
110.488
109.71
109.023
108.438
107.964
107.61
107.387
107.303
107.369
107.591
107.978
108.535
109.268
110.181
111.278
112.561
114.032
115.69
117.535
119.57
121.792
124.201
126.794
129.569
132.522
135.649
138.944
142.401
146.01
149.765
153.657
157.676
161.816
166.068
170.423
174.875
179.417
184.041
188.737
193.497
198.307
203.157
208.033
212.92
217.803
222.67
227.512
232.321
237.091
241.813
246.479
251.079
255.602
260.042
264.385
268.613
272.713
276.674
280.498
284.201
287.791
291.267
294.62
297.839
300.911
303.828
306.563
309.069
311.297
313.203
314.768
316.004
316.917
317.498
317.721
317.545
316.956
315.985
314.661
312.997
311.009
308.705
306.136
303.443
300.773
298.252
295.982
293.997
292.313
291.03
290.279
290.088
290.356
290.775
290.907
290.469
289.288
287.113
283.684
278.884
272.818
266.171
260.044
255.275
252.567
252.484
255.034
259.817
265.997
271.572
274.065
271.454
261.144
240.678
209.186
166.273
113.817
57.113
-0.665
-57.582
-111.865
-164.8
-211.12
-240.931
-247.307
-221.863
-166.401
-89.489
5.452
109.249
214.976
315.35
392.195
435.412
442.664
418.675
381.503
344.56
313.592
290.038
268.402
246.257
225.281
207.777
197.523
195.667
200.598
210.241
221.837
233.059
242.812
250.272
254.615
255.622
253.516
248.853
242.769
236.478
230.611
225.542
221.606
218.827
217.125
216.353
216.049
215.704
215.073
214.012
212.441
210.396
207.864
204.817
201.311
197.408
193.13
188.495
183.493
178.108
172.361
166.297
159.963
153.408
146.657
139.727
132.63
125.378
117.981
110.445
102.772
94.969
87.047
79.022
70.911
62.728
54.484
46.186
37.837
29.442
21.012
12.563
4.113
-4.314
-12.696
-21.006
-29.213
-37.287
-45.2
-52.924
-60.434
-67.702
-74.701
-81.403
-87.779
-93.803
-99.447
-104.686
-109.493
-113.843
-117.717
-121.093
-123.954
-126.285
-128.072
-129.305
-129.974
-130.074
-129.602
-128.555
-126.937
-124.75
-122.004
-118.708
-114.876
-110.526
-105.676
-100.351
-94.574
-88.375
-81.785
-74.835
-67.561
-60.001
-52.193
-44.177
-35.995
-27.689
-19.303
-10.881
-2.466
5.899
14.17
22.305
30.263
38.005
45.491
52.686
59.554
66.065
72.187
77.893
83.159
87.963
92.286
96.113
99.431
102.231
104.507
106.255
107.476
108.173
108.352
108.022
107.196
105.888
104.116
101.9
99.261
96.222
92.811
89.052
84.974
80.606
75.978
71.119
66.059
60.83
55.461
49.981
44.421
38.807
33.168
27.528
21.911
16.342
10.84
5.425
0.114
-5.076
-10.132
-15.042
-19.794
-24.381
-28.796
-33.034
-37.092
-40.968
-44.662
-48.176
-51.511
-54.673
-57.666
-60.495
-63.167
-65.688
-68.067
-70.311
-72.427
-74.425
-76.312
-78.096
-79.783
-81.382
-82.898
-84.337
-85.704
-87.003
-88.236
-89.407
-90.517
-91.566
-92.556
-93.486
-94.355
-95.162
-95.905
-96.583
-97.194
-97.735
-98.204
-98.597
-98.913
-99.148
-99.302
-99.372
-99.356
-99.254
-99.066
-98.792
-98.434
-97.993
-97.473
-96.879
-96.213
-95.483
-94.694
-93.853
-92.969
-92.051
-91.11
-90.156
-89.203
-88.261
-87.343
-86.462
-85.629
-84.854
-84.148
-83.52
-82.979
-82.535
-82.195
-81.966
-81.856
-81.87
-82.014
-82.291
-82.703
-83.251
-83.932
-84.743
-85.679
-86.733
-87.896
-89.158
-90.508
-91.938
-93.437
-94.997
-96.603
-98.241
-99.898
-101.561
-103.215
-104.848
-106.442
-107.983
-109.46
-110.869
-112.204
-113.461
-114.636
-115.719
-116.702
-117.584
-118.354
-119.002
-119.512
-119.857
-120.021
-120.005
-119.814
-119.463
-118.969
-118.34
-117.605
-116.806
-115.972
-115.136
-114.32
-113.527
-112.792
-112.158
-111.677
-111.435
-111.512
-111.965
-112.841
-114.147
-115.848
-117.914
-120.26
-122.781
-125.38
-127.888
-130.262
-132.612
-135.086
-137.999
-141.629
-146.019
-151.326
-157.836
-165.376
-173.545
-181.679
-188.387
-192.603
-193.817
-191.137
-183.948
-172.715
-158.288
-142.371
-128.08
-118.089
-114.768
-121.417
-140.732
-172.555
-214.831
-264.773
-317.66
-373.367
-436.079
-503.612
-572.098
-631.767
-662.791
-655.235
-605.522
-515.03
-402.488
-285.013
-178.332
-101.993
-59.096
-46.641
-58.816
-78.783
-99.664
-120.645
-137.539
-154.036
-168.428
-174.177
-174.108
-168.805
-160.344
-154.915
-151.112
-147.764
-145.424
-142.415
-140.044
-139.705
-140.727
-142.82
-145.273
-147.13
-148.241
-148.67
-148.364
-147.419
-145.964
-144.107
-142.049
-140.038
-138.238
-136.716
-135.5
-134.586
-133.972
-133.696
-133.806
-134.318
-135.224
-136.514
-138.184
-140.236
-142.681
-145.496
-148.628
-152.017
-155.597
-159.325
-163.184
-167.151
-171.207
-175.334
-179.514
-183.741
-188.024
-192.36
-196.742
-201.157
-205.59
-210.034
-214.488
-218.952
-223.424
-227.9
-232.374
-236.839
-241.29
-245.716
-250.105
-254.439
-258.701
-262.872
-266.939
-270.884
-274.695
-278.357
-281.854
-285.172
-288.297
-291.216
-293.912
-296.371
-298.577
-300.515
-302.172
-303.534
-304.59
-305.327
-305.737
-305.81
-305.538
-304.916
-303.938
-302.599
-300.898
-298.831
-296.399
-293.602
-290.443
-286.925
-283.056
-278.841
-274.291
-269.416
-264.228
-258.741
-252.971
-246.933
-240.645
-234.128
-227.399
-220.481
-213.396
-206.167
-198.818
-191.375
-183.861
-176.302
-168.723
-161.151
-153.609
-146.123
-138.717
-131.413
-124.236
-117.206
-110.346
-103.675
-97.211
-90.974
-84.98
-79.243
-73.778
-68.596
-63.706
-59.118
-54.838
-50.869
-47.214
-43.874
-40.846
-38.127
-35.711
-33.592
-31.758
-30.2
-28.905
-27.858
-27.043
-26.443
-26.039
-25.813
-25.743
-25.81
-25.99
-26.263
-26.605
-26.995
-27.409
-27.824
-28.219
-28.57
-28.855
-29.054
-29.146
-29.11
-28.929
-28.585
-28.062
-27.346
-26.423
-25.283
-23.915
-22.312
-20.467
-18.376
-16.036
-13.446
-10.608
-7.525
-4.201
-0.642
3.143
7.145
11.354
15.757
20.342
25.094
29.999
35.041
40.202
45.466
50.813
56.226
61.684
67.169
72.662
78.142
83.592
88.993
94.326
99.574
104.721
109.75
114.645
119.392
123.977
128.387
132.61
136.637
140.458
144.065
147.453
150.616
153.549
156.251
158.717
160.947
162.941
164.698
166.219
167.507
168.565
169.397
170.009
170.407
170.599
170.59
170.39
170.007
169.449
168.724
167.843
166.813
165.644
164.347
162.934
161.414
159.801
158.104
156.337
154.51
152.634
150.72
148.777
146.817
144.848
142.882
140.929
139.001
137.111
135.272
133.498
131.8
130.192
128.684
127.286
126.006
124.85
123.821
122.923
122.161
121.539
121.065
120.746
120.588
120.595
120.771
121.116
121.628
122.305
123.136
124.11
125.222
126.468
127.859
129.405
131.103
132.949
134.927
137.015
139.194
141.432
143.676
145.88
147.99
149.965
151.792
153.462
154.962
156.271
157.34
158.13
158.631
158.855
158.817
158.54
158.038
157.347
156.557
155.771
155.106
154.658
154.463
154.535
154.879
155.559
156.689
158.284
160.206
162.176
163.849
164.965
165.32
164.567
162.329
158.459
153.068
146.817
140.542
134.814
130.588
128.714
129.318
132.443
136.322
138.221
137.441
132.318
122.723
108.896
86.858
56.237
15.239
-37.787
-99.393
-172.45
-253.519
-333.152
-401.788
-438.175
-429.519
-374.776
-277.463
-156.749
-31.38
85.286
177.961
240.011
271.031
273.231
256.805
233.089
208.479
186.935
168.309
149.913
131.851
115.715
103.526
97.809
99.063
105.627
114.95
124.402
132.478
138.556
142.384
143.892
142.856
139.665
135.505
131.374
127.871
125.264
123.442
122.337
122.118
122.666
123.515
124.279
124.683
124.623
124.209
123.485
122.366
120.817
118.874
116.582
114.013
111.199
108.108
104.735
101.113
97.296
93.359
89.37
85.366
81.37
77.406
73.49
69.641
65.875
62.195
58.594
55.077
51.646
48.312
45.083
41.958
38.934
35.999
33.144
30.362
27.648
24.998
22.411
19.885
17.423
15.027
12.704
10.459
8.295
6.213
4.214
2.301
0.474
-1.263
-2.908
-4.459
-5.911
-7.261
-8.505
-9.637
-10.653
-11.55
-12.323
-12.968
-13.482
-13.862
-14.103
-14.204
-14.16
-13.971
-13.632
-13.143
-12.502
-11.708
-10.761
-9.662
-8.415
-7.022
-5.486
-3.814
-2.01
-0.08
1.967
4.126
6.387
8.742
11.184
13.701
16.285
18.925
21.611
24.33
27.074
29.829
32.585
35.33
38.053
40.744
43.391
45.982
48.509
50.96
53.325
55.596
57.762
59.817
61.752
63.562
65.239
66.78
68.181
69.438
70.55
71.514
72.331
73
73.521
73.897
74.129
74.219
74.171
73.987
73.672
73.231
72.667
71.986
71.195
70.298
69.303
68.216
67.045
65.798
64.482
63.106
61.678
60.208
58.703
57.173
55.626
54.071
52.515
50.967
49.434
47.924
46.443
44.999
43.598
42.245
40.947
39.71
38.538
37.436
36.41
35.464
34.601
33.826
33.142
32.552
32.059
31.665
31.372
31.181
31.092
31.104
31.218
31.43
31.739
32.142
32.635
33.215
33.877
34.618
35.433
36.317
37.265
38.272
39.333
40.441
41.592
42.779
43.996
45.238
46.498
47.77
49.049
50.327
51.599
52.858
54.096
55.307
56.483
57.618
58.706
59.74
60.715
61.626
62.468
63.239
63.933
64.549
65.083
65.532
65.893
66.163
66.341
66.423
66.408
66.294
66.08
65.765
65.348
64.829
64.206
63.48
62.649
61.714
60.674
59.531
58.284
56.935
55.488
53.947
52.314
50.595
48.794
46.915
44.962
42.941
40.854
38.707
36.503
34.248
31.947
29.608
27.241
24.856
22.464
20.075
17.7
15.35
13.035
10.761
8.535
6.362
4.246
2.197
0.222
-1.67
-3.472
-5.173
-6.768
-8.248
-9.612
-10.856
-11.98
-12.985
-13.874
-14.64
-15.275
-15.758
-16.072
-16.213
-16.179
-15.975
-15.611
-15.104
-14.48
-13.782
-13.059
-12.351
-11.7
-11.127
-10.647
-10.281
-10.062
-10.042
-10.259
-10.708
-11.368
-12.212
-13.22
-14.384
-15.656
-16.907
-17.99
-18.765
-19.1
-18.944
-18.229
-16.806
-14.622
-11.699
-8.174
-4.447
-0.916
2.182
4.511
5.68
5.648
4.487
2.53
0.77
0.005
0.729
3.784
9.754
18.224
28.295
38.425
46.084
49.09
45.468
32.263
6.763
-30.882
-78.072
-131.539
-186.784
-244.074
-309.022
-381.674
-458.62
-529.001
-570.661
-569.088
-518.125
-421.745
-302.032
-181.8
-80.948
-13.188
23.716
38.238
42.399
46.854
53.357
59.998
62.559
58.251
49.313
39.165
31.093
26.993
26.501
28.412
31.509
34.616
36.508
36.452
34.148
29.545
23.017
15.073
6.198
-2.963
-11.668
-19.458
-26.104
-31.524
-35.845
-39.166
-41.541
-43.099
-43.984
-44.296
-44.113
-43.47
-42.353
-40.818
-38.985
-37.004
-35.066
-33.314
-31.833
-30.691
-29.923
-29.559
-29.626
-30.129
-31.054
-32.401
-34.171
-36.393
-39.126
-42.383
-46.142
-50.34
-54.866
-59.641
-64.622
-69.767
-75.048
-80.438
-85.908
-91.452
-97.091
-102.821
-108.628
-114.475
-120.295
-126.045
-131.706
-137.268
-142.744
-148.136
-153.43
-158.621
-163.71
-168.684
-173.528
-178.206
-182.66
-186.851
-190.756
-194.357
-197.655
-200.654
-203.357
-205.789
-207.977
-209.93
-211.652
-213.128
-214.316
-215.19
-215.721
-215.876
-215.653
-215.043
-214.025
-212.6
-210.757
-208.458
-205.657
-202.27
-198.192
-193.374
-187.795
-181.464
-174.444
-166.81
-158.658
-150.127
-141.326
-132.348
-123.289
-114.211
-105.176
-96.292
-87.671
-79.467
-71.863
-64.982
-58.91
-53.714
-49.381
-45.874
-43.12
-40.972
-39.312
-38.056
-37.126
-36.482
-36.095
-35.894
-35.808
-35.753
-35.605
-35.276
-34.703
-33.827
-32.642
-31.174
-29.479
-27.669
-25.843
-24.063
-22.377
-20.808
-19.362
-18.062
-16.925
-15.958
-15.195
-14.659
-14.366
-14.342
-14.584
-15.072
-15.77
-16.618
-17.558
-18.551
-19.565
-20.577
-21.576
-22.55
-23.492
-24.406
-25.288
-26.13
-26.924
-27.655
-28.314
-28.897
-29.403
-29.835
-30.199
-30.495
-30.724
-30.887
-30.98
-31.001
-30.943
-30.798
-30.559
-30.22
-29.78
-29.237
-28.593
-27.848
-27.003
-26.062
-25.029
-23.907
-22.699
-21.408
-20.037
-18.591
-17.073
-15.489
-13.841
-12.137
-10.38
-8.578
-6.735
-4.858
-2.954
-1.027
0.915
2.869
4.827
6.784
8.735
10.675
12.597
14.496
16.367
18.203
20.001
21.757
23.466
25.125
26.731
28.282
29.776
31.209
32.579
33.882
35.116
36.277
37.364
38.372
39.302
40.152
40.922
41.612
42.223
42.757
43.215
43.598
43.907
44.145
44.314
44.417
44.456
44.434
44.357
44.227
44.05
43.832
43.578
43.292
42.982
42.651
42.307
41.957
41.608
41.267
40.944
40.647
40.388
40.177
40.025
39.94
39.93
39.998
40.146
40.376
40.685
41.07
41.533
42.07
42.685
43.386
44.181
45.082
46.099
47.235
48.495
49.882
51.398
53.046
54.828
56.743
58.788
60.961
63.256
65.67
68.182
70.752
73.326
75.835
78.216
80.431
82.429
84.164
85.584
86.621
87.259
87.51
87.374
86.879
86.033
84.819
83.321
81.674
79.913
78.095
76.196
73.977
71.287
68.02
63.945
58.985
53.333
47.181
40.91
35.554
32.332
32.206
36.215
43.766
52.268
60.988
69.749
78.925
91.393
103.226
106.194
94.824
61.582
8.192
-56.359
-130.658
-210.134
-290.47
-369.145
-428.458
-449.48
-422.671
-342.664
-222.134
-86.597
42.622
142.847
198.914
212.15
188.733
142.453
90.752
41.493
-2.261
-41.778
-81.471
-120.685
-156.137
-184.013
-200.223
-204.387
-198.695
-185.897
-169.83
-153.535
-138.776
-127.211
-119.694
-116.266
-116.623
-119.857
-124.534
-129.371
-133.558
-136.554
-138.227
-138.657
-137.915
-136.229
-133.962
-131.514
-129.142
-126.953
-124.95
-123.071
-121.302
-119.661
-118.141
-116.7
-115.303
-113.926
-112.547
-111.189
-109.879
-108.629
-107.465
-106.407
-105.477
-104.713
-104.152
-103.813
-103.703
-103.819
-104.146
-104.68
-105.417
-106.357
-107.499
-108.842
-110.38
-112.112
-114.034
-116.139
-118.414
-120.841
-123.397
-126.058
-128.805
-131.618
-134.478
-137.365
-140.256
-143.132
-145.972
-148.754
-151.454
-154.049
-156.514
-158.825
-160.958
-162.892
-164.605
-166.08
-167.298
-168.244
-168.904
-169.266
-169.319
-169.053
-168.462
-167.539
-166.279
-164.681
-162.744
-160.468
-157.858
-154.919
-151.658
-148.084
-144.207
-140.039
-135.592
-130.88
-125.918
-120.72
-115.303
-109.684
-103.879
-97.906
-91.784
-85.531
-79.164
-72.7
-66.157
-59.552
-52.899
-46.215
-39.514
-32.81
-26.117
-19.446
-12.81
-6.218
0.319
6.793
13.196
19.522
25.766
31.922
37.988
43.96
49.836
55.614
61.294
66.876
72.361
77.748
83.038
88.235
93.338
98.349
103.269
108.1
112.843
117.498
122.066
126.547
130.942
135.25
139.471
143.604
147.65
151.606
155.472
159.245
162.925
166.509
169.994
173.38
176.662
179.839
182.909
185.869
188.718
191.452
194.069
196.568
198.947
201.204
203.338
205.348
207.234
208.996
210.636
212.154
213.554
214.838
216.009
217.071
218.028
218.886
219.648
220.322
220.913
221.427
221.873
222.257
222.587
222.872
223.12
223.338
223.536
223.72
223.899
224.081
224.272
224.482
224.717
224.986
225.294
225.649
226.057
226.525
227.057
227.657
228.33
229.077
229.902
230.806
231.791
232.857
234.004
235.233
236.544
237.933
239.4
240.94
242.55
244.224
245.957
247.744
249.577
251.45
253.356
255.29
257.244
259.213
261.189
263.164
265.133
267.087
269.019
270.923
272.789
274.613
276.387
278.109
279.775
281.38
282.923
284.401
285.811
287.153
288.425
289.626
290.754
291.81
292.795
293.712
294.566
295.363
296.11
296.817
297.493
298.149
298.794
299.436
300.082
300.739
301.412
302.106
302.825
303.575
304.362
305.198
306.09
307.045
308.068
309.16
310.323
311.561
312.873
314.248
315.685
317.183
318.753
320.416
322.188
324.064
326.042
328.111
330.258
332.472
334.719
336.94
339.081
341.085
342.92
344.59
346.081
347.362
348.397
349.126
349.524
349.625
349.434
348.943
348.152
347.047
345.697
344.276
342.928
341.802
341
340.522
340.453
340.947
342.024
343.64
345.581
347.39
348.775
349.613
349.609
348.541
346.386
343.15
339.354
335.928
333.482
332.596
333.959
337.701
343.419
350.277
356.481
359.905
358.664
350.378
332.443
302.889
262.143
213.302
159.987
106.299
51.442
-10.039
-77.472
-147.244
-208.206
-238.244
-225.521
-166.358
-63.596
62.99
194.885
317.411
413.207
473.448
495.937
482.612
443.824
396.033
353.398
324.422
313.581
315.506
320.884
324.783
322.558
314.977
307.378
301.616
298.532
297.361
295.134
290.796
284.632
277.069
269.057
261.21
253.745
247.005
241.213
236.391
232.441
229.187
226.484
224.186
222.145
220.205
218.188
215.991
213.571
210.884
207.893
204.571
200.889
196.845
192.463
187.756
182.741
177.447
171.893
166.118
160.166
154.079
147.908
141.692
135.451
129.205
122.962
116.723
110.489
104.252
97.995
91.704
85.371
78.985
72.542
66.034
59.452
52.785
46.025
39.163
32.198
25.132
17.969
10.716
3.381
-4.02
-11.471
-18.952
-26.448
-33.941
-41.413
-48.844
-56.214
-63.501
-70.681
-77.732
-84.63
-91.348
-97.861
-104.143
-110.17
-115.92
-121.369
-126.498
-131.286
-135.714
-139.767
-143.428
-146.686
-149.529
-151.947
-153.934
-155.486
-156.601
-157.281
-157.531
-157.356
-156.767
-155.775
-154.395
-152.646
-150.545
-148.115
-145.379
-142.364
-139.096
-135.606
-131.923
-128.079
-124.107
-120.04
-115.911
-111.753
-107.599
-103.482
-99.432
-95.481
-91.658
-87.991
-84.507
-81.23
-78.185
-75.391
-72.869
-70.636
-68.705
-67.089
-65.799
-64.841
-64.22
-63.94
-64
-64.398
-65.13
-66.189
-67.568
-69.254
-71.237
-73.502
-76.034
-78.817
-81.834
-85.067
-88.498
-92.108
-95.879
-99.79
-103.825
-107.965
-112.192
-116.49
-120.841
-125.23
-129.644
-134.067
-138.489
-142.896
-147.279
-151.629
-155.938
-160.198
-164.405
-168.554
-172.642
-176.667
-180.628
-184.525
-188.36
-192.136
-195.854
-199.52
-203.138
-206.712
-210.249
-213.755
-217.234
-220.693
-224.139
-227.576
-231.011
-234.449
-237.893
-241.348
-244.818
-248.306
-251.814
-255.346
-258.902
-262.483
-266.09
-269.724
-273.384
-277.069
-280.777
-284.507
-288.256
-292.022
-295.802
-299.592
-303.389
-307.188
-310.986
-314.776
-318.555
-322.316
-326.053
-329.759
-333.429
-337.056
-340.634
-344.156
-347.617
-351.012
-354.335
-357.582
-360.748
-363.827
-366.815
-369.706
-372.496
-375.18
-377.753
-380.211
-382.55
-384.765
-386.853
-388.81
-390.632
-392.314
-393.849
-395.232
-396.459
-397.523
-398.42
-399.145
-399.692
-400.06
-400.245
-400.247
-400.063
-399.69
-399.124
-398.365
-397.408
-396.251
-394.889
-393.317
-391.534
-389.541
-387.339
-384.932
-382.321
-379.513
-376.516
-373.338
-369.988
-366.473
-362.799
-358.975
-355.012
-350.925
-346.728
-342.435
-338.058
-333.616
-329.13
-324.616
-320.088
-315.55
-310.997
-306.432
-301.864
-297.307
-292.772
-288.274
-283.837
-279.503
-275.332
-271.391
-267.726
-264.36
-261.307
-258.588
-256.234
-254.28
-252.751
-251.649
-250.975
-250.751
-251.019
-251.791
-253.011
-254.558
-256.253
-257.915
-259.443
-260.733
-261.624
-262.055
-262.049
-261.72
-261.407
-261.403
-261.779
-262.67
-264.27
-266.465
-269.075
-271.699
-273.422
-273.634
-272.122
-268.472
-262.395
-254.278
-244.781
-235.227
-227.969
-224.893
-227.362
-237.253
-256.344
-285.5
-324.962
-372.726
-424.036
-474.747
-522.278
-566.936
-611.327
-655.252
-693.432
-714.607
-705.266
-658.314
-576.225
-470.171
-358.622
-258.529
-179.563
-127.375
-99.277
-86.636
-83.797
-84.979
-88.024
-96.211
-109.953
-127.77
-146.944
-162.997
-173.78
-179.384
-180.601
-178.691
-174.712
-169.751
-165.094
-161.662
-159.828
-159.427
-159.966
-161.02
-162.24
-163.214
-163.52
-162.902
-161.298
-158.84
-155.794
-152.406
-148.891
-145.454
-142.244
-139.345
-136.813
-134.678
-132.943
-131.616
-130.691
-130.144
-129.969
-130.159
-130.698
-131.56
-132.699
-134.058
-135.576
-137.198
-138.888
-140.624
-142.389
-144.172
-145.967
-147.773
-149.598
-151.457
-153.351
-155.28
-157.245
-159.247
-161.289
-163.382
-165.53
-167.739
-170.013
-172.352
-174.755
-177.215
-179.724
-182.27
-184.84
-187.418
-189.987
-192.533
-195.042
-197.498
-199.886
-202.19
-204.391
-206.474
-208.419
-210.206
-211.817
-213.23
-214.426
-215.386
-216.091
-216.526
-216.673
-216.517
-216.045
-215.243
-214.101
-212.607
-210.754
-208.535
-205.945
-202.982
-199.644
-195.933
-191.854
-187.412
-182.616
-177.474
-172
-166.206
-160.11
-153.729
-147.083
-140.192
-133.079
-125.768
-118.285
-110.657
-102.909
-95.071
-87.17
-79.234
-71.293
-63.374
-55.505
-47.713
-40.026
-32.467
-25.063
-17.836
-10.808
-4
2.571
8.888
14.937
20.704
26.179
31.353
36.221
40.778
45.021
48.95
52.569
55.88
58.89
61.607
64.042
66.205
68.11
69.771
71.203
72.424
73.45
74.3
74.993
75.547
75.983
76.321
76.579
76.778
76.937
77.074
77.208
77.355
77.531
77.752
78.031
78.382
78.816
79.344
79.974
80.715
81.572
82.549
83.651
84.878
86.23
87.706
89.303
91.018
92.846
94.78
96.813
98.939
101.147
103.429
105.773
108.17
110.607
113.073
115.556
118.043
120.524
122.985
125.416
127.805
130.142
132.417
134.619
136.738
138.766
140.695
142.518
144.228
145.82
147.29
148.637
149.857
150.95
151.915
152.754
153.466
154.055
154.522
154.87
155.103
155.226
155.243
155.162
154.99
154.733
154.399
153.996
153.532
153.014
152.45
151.848
151.215
150.559
149.888
149.211
148.538
147.877
147.237
146.625
146.049
145.517
145.033
144.602
144.228
143.916
143.669
143.492
143.39
143.369
143.433
143.589
143.845
144.204
144.668
145.241
145.922
146.711
147.604
148.597
149.686
150.871
152.152
153.529
155.004
156.574
158.235
159.982
161.809
163.708
165.67
167.676
169.717
171.788
173.897
176.062
178.291
180.579
182.918
185.3
187.714
190.145
192.559
194.898
197.112
199.166
201.047
202.769
204.329
205.704
206.865
207.765
208.391
208.762
208.878
208.72
208.279
207.55
206.601
205.591
204.653
203.895
203.388
203.124
203.176
203.671
204.618
205.963
207.487
208.779
209.556
209.659
208.797
206.789
203.682
199.541
194.958
190.963
188.353
188.007
190.764
196.676
205.166
215.34
225.359
232.796
235.346
229.983
213.571
185.733
148.518
104.007
55.472
2.554
-59.373
-128.542
-198.79
-258.321
-288.464
-279.874
-232.586
-152.428
-53.97
50.064
149.393
231.773
289.49
319.055
322.623
310.609
292.836
275.662
261.283
246.455
229.887
212.917
197.44
186.728
181.964
181.915
185.233
190.135
194.771
198.313
200.345
200.589
199.363
197.178
194.439
191.702
189.556
188.246
187.843
188.342
189.527
191.18
193.135
195.149
196.996
198.578
199.837
200.754
201.342
201.566
201.385
200.793
199.79
198.377
196.563
194.343
191.722
188.738
185.438
181.874
178.099
174.139
170.011
165.733
161.316
156.771
152.11
147.332
142.433
137.418
132.294
127.071
121.76
116.363
110.883
105.323
99.686
93.978
88.207
82.382
76.515
70.623
64.722
58.833
52.978
47.178
41.451
35.818
30.297
24.906
19.661
14.582
9.682
4.979
0.489
-3.774
-7.793
-11.555
-15.049
-18.263
-21.187
-23.814
-26.138
-28.153
-29.855
-31.242
-32.312
-33.066
-33.506
-33.632
-33.45
-32.964
-32.182
-31.111
-29.763
-28.148
-26.28
-24.173
-21.84
-19.3
-16.567
-13.66
-10.595
-7.391
-4.063
-0.632
2.887
6.475
10.116
13.792
17.488
21.189
24.879
28.544
32.172
35.75
39.267
42.712
46.076
49.351
52.527
55.6
58.562
61.409
64.136
66.741
69.222
71.577
73.808
75.915
77.901
79.768
81.519
83.16
84.694
86.127
87.463
88.707
89.864
90.94
91.939
92.866
93.726
94.524
95.263
95.948
96.582
97.17
97.715
98.219
98.685
99.115
99.512
99.878
100.214
100.522
100.804
101.061
101.294
101.503
101.689
101.852
101.991
102.106
102.196
102.259
102.296
102.304
102.284
102.234
102.153
102.042
101.9
101.728
101.524
101.291
101.027
100.732
100.408
100.054
99.671
99.26
98.821
98.354
97.862
97.343
96.798
96.228
95.632
95.009
94.358
93.68
92.973
92.237
91.471
90.674
89.846
88.987
88.097
87.175
86.22
85.23
84.205
83.143
82.043
80.901
79.717
78.487
77.212
75.889
74.518
73.098
71.629
70.109
68.538
66.917
65.245
63.523
61.751
59.931
58.066
56.161
54.219
52.248
50.251
48.236
46.209
44.178
42.149
40.129
38.123
36.14
34.188
32.276
30.414
28.613
26.883
25.238
23.692
22.258
20.945
19.764
18.724
17.832
17.097
16.521
16.106
15.86
15.787
15.893
16.184
16.661
17.323
18.168
19.192
20.386
21.743
23.247
24.882
26.642
28.525
30.533
32.676
34.95
37.343
39.849
42.453
45.132
47.855
50.564
53.203
55.733
58.126
60.365
62.442
64.325
65.982
67.385
68.493
69.285
69.739
69.813
69.479
68.729
67.608
66.227
64.711
63.161
61.656
60.23
58.95
57.943
57.213
56.652
56.065
55.096
53.509
51.216
47.986
43.603
38.105
31.677
24.956
19.003
14.56
12.219
12.667
16.072
22.054
29.742
37.226
42.121
42.319
35.432
19.013
-8.694
-47.313
-93.814
-144.391
-195.08
-246.216
-302.336
-363.217
-424.364
-474.212
-494.199
-474.166
-414.202
-321.779
-212.175
-99.523
6.936
98.043
163.707
197.726
199.359
173.27
132.65
92.339
59.506
38.308
28.335
22.496
18.123
13.97
7.802
2.827
0.519
-0.172
0.959
1.961
1.285
-0.681
-3.723
-7.272
-10.617
-13.431
-15.387
-16.238
-15.957
-14.688
-12.675
-10.136
-7.271
-4.269
-1.309
1.462
3.951
6.099
7.896
9.325
10.368
11.016
11.266
11.12
10.597
9.724
8.525
7.035
5.295
3.344
1.228
-1.023
-3.391
-5.866
-8.442
-11.121
-13.904
-16.797
-19.809
-22.945
-26.205
-29.596
-33.114
-36.761
-40.536
-44.44
-48.474
-52.635
-56.914
-61.302
-65.783
-70.342
-74.962
-79.621
-84.296
-88.964
-93.604
-98.195
-102.717
-107.147
-111.464
-115.646
-119.671
-123.517
-127.161
-130.583
-133.759
-136.671
-139.299
-141.626
-143.636
-145.317
-146.656
-147.642
-148.268
-148.526
-148.414
-147.929
-147.07
-145.839
-144.24
-142.278
-139.963
-137.303
-134.312
-131.002
-127.389
-123.491
-119.326
-114.914
-110.276
-105.433
-100.411
-95.231
-89.92
-84.502
-79.004
-73.45
-67.868
-62.282
-56.718
-51.2
-45.752
-40.396
-35.153
-30.045
-25.088
-20.3
-15.696
-11.289
-7.093
-3.116
0.634
4.148
7.424
10.457
13.248
15.796
18.103
20.174
22.013
23.629
25.028
26.219
27.214
28.024
28.661
29.138
29.469
29.668
29.75
29.729
29.621
29.441
29.204
28.922
28.611
28.284
27.951
27.626
27.318
27.038
26.792
26.59
26.437
26.339
26.3
26.322
26.407
26.557
26.771
27.048
27.386
27.782
28.232
28.731
29.276
29.861
30.478
31.123
31.787
32.464
33.147
33.826
34.496
35.148
35.775
36.371
36.929
37.443
37.908
38.318
38.671
38.962
39.188
39.348
39.442
39.468
39.429
39.325
39.16
38.938
38.662
38.338
37.97
37.565
37.128
36.665
36.185
35.693
35.198
34.706
34.226
33.765
33.331
32.93
32.569
32.254
31.99
31.783
31.638
31.558
31.547
31.609
31.746
31.959
32.25
32.617
33.059
33.574
34.157
34.804
35.51
36.267
37.067
37.905
38.772
39.661
40.562
41.467
42.366
43.249
44.105
44.925
45.698
46.414
47.065
47.643
48.142
48.557
48.882
49.113
49.248
49.282
49.214
49.042
48.766
48.384
47.898
47.311
46.628
45.857
45.006
44.084
43.104
42.079
41.022
39.945
38.86
37.778
36.71
35.666
34.66
33.701
32.805
31.986
31.258
30.639
30.14
29.768
29.529
29.423
29.451
29.612
29.904
30.323
30.874
31.568
32.419
33.447
34.664
36.06
37.626
39.344
41.183
43.115
45.11
47.119
49.109
51.065
52.977
54.85
56.672
58.396
59.962
61.31
62.389
63.177
63.659
63.811
63.639
63.176
62.483
61.678
60.861
60.084
59.367
58.713
58.173
57.785
57.51
57.194
56.532
55.175
52.88
49.548
45.079
39.569
33.415
27.185
21.876
18.754
18.774
22.304
29.209
38.685
49.252
59.054
65.496
65.183
54.696
33.028
1.773
-37.056
-80.522
-129.634
-189.585
-259.554
-334.001
-400.448
-438.462
-436.439
-392.551
-312.391
-212.15
-106.689
-7.828
72.019
126.227
152.799
154.785
142.527
125.488
109.425
96.136
82.539
67.346
51.956
38.4
29.816
27.31
29.61
35.241
42.382
49.237
54.989
59.211
61.629
62.518
62.35
61.581
60.805
60.616
61.287
62.894
65.431
68.719
72.581
76.869
81.351
85.802
90.102
94.202
98.082
101.76
105.185
108.252
110.892
113.052
114.704
115.86
116.513
116.643
116.262
115.392
114.095
112.474
110.586
108.455
106.109
103.561
100.882
98.208
95.645
93.267
91.12
89.183
87.453
85.961
84.697
83.648
82.749
81.838
80.782
79.475
77.803
75.693
73.026
69.544
64.965
59.114
51.954
43.651
34.38
24.082
12.524
-0.514
-14.99
-30.791
-48.054
-67.261
-88.983
-113.34
-139.669
-166.857
-194.1
-220.759
-246.048
-268.904
-287.974
-302.396
-312.395
-318.869
-322.549
-323.955
-323.49
-321.691
-319.475
-317.451
-315.507
-313.091
-309.739
-305.284
-299.843
-293.535
-286.267
-278.044
-269.103
-259.88
-250.787
-242.024
-233.642
-225.628
-218.005
-210.822
-204.091
-197.738
-191.67
-185.815
-180.085
-174.445
-168.868
-163.291
-157.679
-152.013
-146.276
-140.492
-134.704
-128.944
-123.257
-117.689
-112.269
-107.037
-102.039
-97.32
-92.939
-88.94
-85.347
-82.185
-79.47
-77.208
-75.407
-74.057
-73.13
-72.601
-72.446
-72.638
-73.155
-73.969
-75.046
-76.353
-77.857
-79.524
-81.325
-83.232
-85.215
-87.246
-89.298
-91.347
-93.371
-95.348
-97.255
-99.07
-100.769
-102.333
-103.744
-104.987
-106.046
-106.907
-107.562
-108.003
-108.224
-108.221
-107.993
-107.538
-106.86
-105.961
-104.848
-103.53
-102.014
-100.314
-98.442
-96.412
-94.24
-91.942
-89.534
-87.034
-84.461
-81.833
-79.17
-76.494
-73.826
-71.186
-68.597
-66.078
-63.652
-61.335
-59.148
-57.107
-55.228
-53.524
-52.009
-50.695
-49.593
-48.712
-48.062
-47.649
-47.478
-47.553
-47.877
-48.449
-49.267
-50.328
-51.628
-53.158
-54.913
-56.884
-59.06
-61.429
-63.98
-66.698
-69.568
-72.572
-75.692
-78.909
-82.205
-85.561
-88.957
-92.376
-95.801
-99.216
-102.608
-105.963
-109.267
-112.506
-115.666
-118.734
-121.7
-124.549
-127.264
-129.83
-132.232
-134.459
-136.507
-138.372
-140.049
-141.539
-142.845
-143.975
-144.943
-145.757
-146.417
-146.924
-147.275
-147.484
-147.576
-147.575
-147.494
-147.346
-147.131
-146.85
-146.506
-146.076
-145.513
-144.765
-143.774
-142.512
-140.989
-139.22
-137.232
-135.04
-132.639
-130.032
-127.228
-124.247
-121.126
-117.919
-114.696
-111.555
-108.597
-105.958
-103.822
-102.235
-101.122
-100.262
-99.24
-97.841
-96.126
-94.144
-91.938
-89.669
-87.496
-85.943
-85.963
-87.881
-91.349
-95.715
-99.958
-103.234
-105.057
-104.48
-100.11
-91.318
-78.202
-61.567
-43.017
-23.745
-4.404
14.053
30.475
44.115
54.57
62.103
67.717
72.099
75.584
78.572
81.436
84.479
88.008
92.114
96.516
100.962
105.235
108.991
111.989
114.14
115.224
114.934
113.305
110.574
107.271
104.395
102.641
102.286
103.824
107.784
114.028
121.89
129.858
135.594
137.268
133.455
122.383
102.221
71.844
31.2
-18.257
-73.937
-133.209
-193.104
-249.929
-299.304
-336.769
-359.029
-364.168
-351.25
-320.481
-273.476
-213.042
-143.505
-70.31
1.658
67.828
123.699
166.409
194.823
208.94
210.401
202.103
186.786
167.693
148.708
132.393
120.14
112.713
109.724
110.225
113.481
118.263
122.848
126.306
128.197
128.357
127.24
125.313
122.863
120.397
118.502
117.458
117.395
118.295
119.903
122.04
124.555
127.23
129.879
132.344
134.504
136.309
137.736
138.757
139.352
139.511
139.228
138.523
137.412
135.917
134.074
131.914
129.479
126.822
123.988
121.035
118.005
114.927
111.824
108.712
105.6
102.496
99.404
96.317
93.232
90.148
87.064
83.981
80.9
77.816
74.727
71.626
68.511
65.382
62.24
59.09
55.935
52.784
49.645
46.532
43.456
40.428
37.459
34.558
31.736
29.004
26.373
23.853
21.456
19.196
17.085
15.14
13.374
11.8
10.432
9.283
8.364
7.685
7.253
7.076
7.163
7.52
8.153
9.068
10.271
11.768
13.567
15.67
18.081
20.797
23.816
27.132
30.737
34.621
38.768
43.166
47.803
52.666
57.746
63.032
68.512
74.171
79.998
85.973
92.077
98.286
104.567
110.895
117.25
123.615
129.983
136.336
142.65
148.9
155.063
161.101
166.966
172.592
177.897
182.82
187.322
191.376
194.969
198.084
200.702
202.822
204.447
205.585
206.246
206.43
206.119
205.347
204.183
202.726
201.119
199.45
197.755
196.082
194.475
192.974
191.606
190.31
188.944
187.38
185.512
183.28
180.684
177.598
173.788
169.072
163.36
156.75
149.418
141.316
132.111
121.487
109.388
95.834
80.753
63.722
44.159
21.951
-2.307
-27.601
-53.164
-78.388
-102.569
-124.695
-143.491
-158.192
-168.966
-176.648
-181.939
-185.337
-187.343
-188.593
-190.033
-192.298
-195.301
-198.496
-201.425
-203.874
-205.796
-207.163
-207.752
-207.448
-206.495
-205.329
-204.325
-203.664
-203.323
-203.211
-203.303
-203.585
-203.946
-204.199
-204.17
-203.751
-202.932
-201.76
-200.254
-198.404
-196.167
-193.499
-190.382
-186.799
-182.75
-178.262
-173.37
-168.115
-162.585
-156.887
-151.123
-145.416
-139.832
-134.367
-129.015
-123.739
-118.508
-113.32
-108.163
-103.023
-97.879
-92.664
-87.312
-81.793
-76.047
-69.994
-63.531
-56.481
-48.689
-40.106
-30.722
-20.575
-9.729
1.799
13.963
26.659
39.748
53.031
66.323
79.519
92.523
105.222
117.47
129.025
139.637
149.163
157.519
164.662
170.569
175.175
178.455
180.502
181.501
181.717
181.379
180.618
179.526
178.198
176.763
175.41
174.335
173.657
173.45
173.795
174.779
176.533
179.143
182.568
186.651
191.16
195.893
200.717
205.523
210.204
214.648
218.744
222.413
225.625
228.352
230.527
232.058
232.841
232.806
231.968
230.412
228.274
225.685
222.768
219.683
216.591
213.637
210.932
208.533
206.44
204.69
203.392
202.543
202.042
201.671
201.042
199.786
197.632
194.325
189.624
183.569
176.435
168.806
161.674
155.999
152.635
152.081
154.274
158.476
163.4
167.339
168.266
163.896
151.44
128.718
94.686
50.794
0.978
-51.203
-103.25
-156.197
-212.014
-267.702
-316.267
-345.196
-340.993
-299.699
-223.642
-120.492
-5.24
110.082
213.178
288.591
330.377
338.872
321.03
292.81
265.114
242.372
224.882
208.353
191.288
175.07
161.649
153.807
151.818
154.427
160.269
166.657
171.927
175.734
177.737
178.176
177.561
175.885
173.304
170.735
168.738
167.491
167.146
167.427
168.009
168.896
170.037
171.115
171.928
172.355
172.251
171.668
170.662
169.186
167.226
164.812
161.961
158.71
155.118
151.207
147.01
142.582
137.968
133.225
128.4
123.518
118.603
113.672
108.736
103.806
98.887
93.982
89.099
84.245
79.426
74.649
69.919
65.237
60.609
56.031
51.504
47.029
42.611
38.26
33.984
29.793
25.699
21.717
17.864
14.155
10.605
7.227
4.034
1.041
-1.738
-4.289
-6.602
-8.667
-10.472
-12.005
-13.25
-14.193
-14.823
-15.131
-15.105
-14.735
-14.009
-12.916
-11.451
-9.614
-7.401
-4.807
-1.818
1.582
5.399
9.62
14.229
19.21
24.544
30.212
36.178
42.386
48.783
55.317
61.95
68.654
75.385
82.093
88.72
95.201
101.501
107.629
113.609
119.457
125.197
130.825
136.348
141.846
147.402
153.092
158.998
165.135
171.485
178.102
185.089
192.455
200.118
207.759
214.825
220.98
226.147
230.316
233.51
235.729
236.911
237.456
238.311
240.011
242.479
245.106
246.698
246.16
242.91
235.982
223.805
205.295
180.033
148.64
113.161
75.749
37.8
0.875
-33.129
-62.539
-85.845
-102.613
-114.037
-121.641
-126.364
-129.011
-130.353
-131.234
-132.794
-135.57
-139.089
-142.572
-145.541
-147.87
-149.688
-151.074
-151.846
-151.955
-151.703
-151.578
-151.994
-153.126
-154.939
-157.317
-160.215
-163.626
-167.485
-171.644
-175.917
-180.133
-184.188
-188.054
-191.705
-195.086
-198.143
-200.825
-203.108
-205.012
-206.564
-207.787
-208.707
-209.351
-209.754
-209.966
-210.045
-210.054
-210.038
-210.023
-210.026
-210.062
-210.148
-210.295
-210.507
-210.769
-211.073
-211.412
-211.783
-212.184
-212.607
-213.041
-213.472
-213.888
-214.28
-214.64
-214.965
-215.248
-215.488
-215.683
-215.832
-215.94
-216.009
-216.039
-216.029
-215.978
-215.886
-215.755
-215.585
-215.376
-215.128
-214.844
-214.525
-214.176
-213.801
-213.403
-212.986
-212.556
-212.116
-211.673
-211.229
-210.788
-210.353
-209.925
-209.507
-209.101
-208.707
-208.327
-207.96
-207.608
-207.272
-206.951
-206.645
-206.353
-206.071
-205.796
-205.525
-205.252
-204.97
-204.67
-204.346
-203.994
-203.606
-203.18
-202.71
-202.195
-201.63
-201.017
-200.349
-199.621
-198.826
-197.957
-197.009
-195.98
-194.866
-193.67
-192.396
-191.045
-189.628
-188.155
-186.628
-185.042
-183.387
-181.643
-179.806
-177.878
-175.858
-173.754
-171.585
-169.378
-167.184
-165.057
-163.031
-161.133
-159.37
-157.733
-156.238
-154.896
-153.731
-152.783
-152.067
-151.598
-151.415
-151.534
-151.958
-152.648
-153.475
-154.296
-154.992
-155.464
-155.681
-155.588
-155.091
-154.22
-153.07
-151.806
-150.767
-150.172
-150.127
-150.908
-152.679
-155.363
-158.872
-162.656
-165.805
-167.714
-167.656
-164.85
-159.224
-151.132
-141.265
-131.419
-123.814
-120.576
-124.686
-139.069
-163.917
-197.218
-236.712
-278.57
-323.853
-379.217
-444.677
-517.202
-585.696
-625.992
-623.874
-572.867
-473.947
-349.072
-219.107
-103.577
-24.686
14.013
16.398
-7.332
-36.251
-59.616
-73.927
-80.207
-86.905
-97.035
-108.982
-120.689
-128.293
-130.963
-130.613
-128.79
-127.317
-127.301
-128.79
-131.905
-136.553
-142.227
-148.42
-154.555
-159.988
-164.41
-167.755
-170.005
-171.294
-171.787
-171.633
-171.069
-170.337
-169.602
-168.969
-168.475
-168.128
-167.971
-168.044
-168.373
-168.98
-169.854
-170.986
-172.38
-174.026
-175.907
-177.993
-180.234
-182.576
-184.968
-187.374
-189.773
-192.155
-194.511
-196.842
-199.153
-201.457
-203.778
-206.139
-208.552
-211.036
-213.605
-216.269
-219.051
-221.973
-225.056
-228.327
-231.802
-235.481
-239.362
-243.433
-247.675
-252.063
-256.553
-261.089
-265.626
-270.118
-274.529
-278.832
-282.986
-286.951
-290.692
-294.168
-297.352
-300.251
-302.871
-305.227
-307.365
-309.323
-311.153
-312.945
-314.756
-316.625
-318.587
-320.646
-322.819
-325.126
-327.56
-330.099
-332.692
-335.23
-337.582
-339.602
-341.079
-341.81
-341.592
-340.175
-337.347
-332.932
-326.755
-318.665
-308.531
-296.218
-281.624
-264.713
-245.483
-224.018
-200.464
-175.002
-147.913
-119.496
-90.05
-59.925
-29.466
1.005
31.14
60.581
89.008
116.099
141.533
165.078
186.53
205.746
222.67
237.286
249.662
259.906
268.135
274.494
279.154
282.297
284.135
284.927
284.883
284.214
283.15
281.855
280.484
279.167
277.971
276.93
276.051
275.311
274.68
274.133
273.619
273.071
272.412
271.528
270.344
268.807
266.851
264.446
261.57
258.21
254.386
250.142
245.521
240.575
235.362
229.927
224.333
218.647
212.94
207.294
201.774
196.425
191.294
186.414
181.811
177.508
173.513
169.82
166.43
163.341
160.549
158.053
155.846
153.917
152.252
150.836
149.655
148.696
147.949
147.4
147.038
146.853
146.835
146.975
147.266
147.694
148.246
148.909
149.67
150.516
151.434
152.412
153.438
154.503
155.599
156.717
157.851
158.994
160.141
161.287
162.427
163.558
164.677
165.783
166.875
167.952
169.017
170.069
171.112
172.145
173.17
174.19
175.206
176.22
177.236
178.255
179.282
180.318
181.369
182.436
183.525
184.636
185.773
186.938
188.132
189.355
190.609
191.892
193.205
194.547
195.918
197.316
198.74
200.19
201.663
203.157
204.669
206.195
207.732
209.278
210.829
212.382
213.938
215.495
217.052
218.609
220.164
221.718
223.27
224.817
226.36
227.897
229.429
230.956
232.481
234.007
235.539
237.082
238.643
240.229
241.847
243.501
245.195
246.933
248.717
250.547
252.428
254.361
256.347
258.389
260.487
262.646
264.867
267.149
269.487
271.876
274.309
276.78
279.286
281.818
284.377
286.963
289.58
292.242
294.958
297.729
300.551
303.411
306.279
309.117
311.883
314.524
316.997
319.267
321.299
323.082
324.596
325.824
326.74
327.292
327.426
327.094
326.229
324.798
322.828
320.371
317.547
314.506
311.337
308.162
305.114
302.185
299.307
296.284
292.743
288.416
283.138
276.695
269.062
260.493
251.32
242.305
234.524
228.838
226.131
227.074
231.513
238.767
247.829
256.598
262.417
262.49
253.219
232.883
202.859
164.835
120.914
69.993
6.344
-70.873
-156.16
-235.128
-286.278
-298.129
-270.112
-212.935
-145.115
-76.805
-13.682
40.433
82.462
104.367
101.223
75.816
37.679
-0.8
-31.166
-51.509
-65.614
-77.219
-87.28
-94.99
-98.446
-97.43
-93.705
-89.174
-85.273
-82.628
-81.245
-81.047
-81.897
-83.482
-85.327
-86.92
-88.035
-88.683
-88.962
-89.032
-89.002
-88.963
-89.047
-89.379
-90.009
-90.906
-92.014
-93.271
-94.663
-96.223
-97.96
-99.848
-101.833
-103.851
-105.841
-107.751
-109.499
-110.959
-112.04
-112.697
-112.941
-112.857
-112.512
-111.937
-111.142
-110.116
-108.861
-107.433
-105.914
-104.387
-102.947
-101.707
-100.817
-100.498
-100.939
-102.226
-104.37
-107.289
-110.907
-115.203
-120.13
-125.61
-131.518
-137.655
-143.817
-149.852
-155.562
-160.669
-164.939
-168.124
-170.129
-171.153
-171.254
-170.293
-168.116
-164.488
-159.132
-151.874
-142.21
-129.236
-112.65
-92.75
-70.196
-46.142
-21.621
2.626
25.36
44.934
60.447
71.709
79.251
84.433
88.264
91.287
94.407
98.767
105.093
113.749
124.409
136.019
147.889
159.751
171.283
182.19
192.239
201.223
209.272
216.857
224.26
231.566
238.784
245.806
252.572
259.083
265.287
271.087
276.421
281.265
285.634
289.592
293.186
296.441
299.372
301.979
304.268
306.255
307.964
309.419
310.646
311.665
312.494
313.15
313.648
314.001
314.216
314.298
314.254
314.091
313.826
313.482
313.079
312.636
312.172
311.7
311.232
310.783
310.361
309.976
309.638
309.353
309.128
308.972
308.893
308.902
309.007
309.215
309.533
309.967
310.522
311.208
312.036
313.019
314.17
315.494
316.986
318.644
320.464
322.435
324.541
326.749
329.01
331.285
333.533
335.716
337.794
339.717
341.441
342.922
344.123
345.049
345.719
346.152
346.369
346.355
346.092
345.637
345.093
344.575
344.196
343.999
344.034
344.499
345.575
347.296
349.514
351.758
353.513
354.59
354.971
354.482
352.922
350.45
347.74
345.886
346.2
348.3
349.813
350.199
349.808
350.371
356.253
365.567
371.685
366.787
340.101
289.07
218.877
139.339
66.495
11.111
-21.248
-31.746
-30.821
-26.599
-25.482
-30.066
-35.897
-40.703
-44.227
-46.981
-51.769
-59.534
-69.021
-78.881
-87.976
-95.749
-102.167
-107.267
-111.007
-113.571
-115.586
-117.759
-120.481
-123.905
-127.997
-132.616
-137.727
-143.307
-149.248
-155.413
-161.682
-167.956
-174.161
-180.255
-186.189
-191.879
-197.249
-202.259
-206.877
-211.092
-214.941
-218.458
-221.683
-224.68
-227.458
-229.982
-232.23
-234.186
-235.862
-237.303
-238.525
-239.539
-240.352
-240.941
-241.3
-241.437
-241.314
-240.87
-240.045
-238.742
-236.941
-234.714
-232.119
-229.218
-226.053
-222.622
-218.957
-215.126
-211.188
-207.198
-203.198
-199.195
-195.249
-191.461
-187.924
-184.778
-182.106
-179.908
-178.204
-176.984
-176.216
-175.886
-175.927
-176.206
-176.643
-177.136
-177.554
-177.935
-178.352
-178.94
-180.013
-181.721
-184.091
-187.326
-191.571
-196.638
-202.133
-207.234
-210.767
-212.076
-210.779
-206.263
-198.349
-187.503
-174.783
-162.321
-152.706
-147.72
-149.162
-159.442
-180.199
-212.225
-254.041
-301.042
-349.086
-396.291
-443.952
-494.418
-545.941
-590.654
-615.307
-608.669
-566.398
-492.961
-401.023
-301.822
-206.293
-124.09
-59.481
-19.047
-3.197
-4.55
-17.84
-34.244
-48.811
-63.976
-79.108
-94.065
-108.448
-118.668
-123.552
-124.103
-121.296
-117.087
-113.523
-111.299
-110.713
-111.995
-114.757
-118.52
-122.929
-127.403
-131.298
-134.345
-136.445
-137.603
-138.056
-137.992
-137.55
-136.95
-136.391
-136.032
-135.991
-136.32
-137.043
-138.183
-139.762
-141.794
-144.282
-147.205
-150.542
-154.268
-158.345
-162.743
-167.418
-172.316
-177.388
-182.574
-187.829
-193.12
-198.422
-203.712
-208.98
-214.211
-219.399
-224.547
-229.655
-234.719
-239.738
-244.705
-249.616
-254.47
-259.268
-264.008
-268.689
-273.308
-277.855
-282.323
-286.703
-290.983
-295.149
-299.186
-303.078
-306.811
-310.374
-313.753
-316.937
-319.913
-322.669
-325.192
-327.471
-329.493
-331.246
-332.716
-333.893
-334.765
-335.323
-335.557
-335.459
-335.022
-334.241
-333.11
-331.626
-329.787
-327.591
-325.039
-322.132
-318.873
-315.267
-311.32
-307.039
-302.434
-297.516
-292.298
-286.792
-281.016
-274.985
-268.717
-262.231
-255.547
-248.685
-241.667
-234.514
-227.25
-219.898
-212.483
-205.029
-197.56
-190.101
-182.676
-175.311
-168.028
-160.85
-153.8
-146.9
-140.171
-133.633
-127.304
-121.203
-115.347
-109.751
-104.429
-99.394
-94.657
-90.227
-86.114
-82.323
-78.859
-75.726
-72.927
-70.462
-68.33
-66.531
-65.062
-63.917
-63.093
-62.581
-62.375
-62.466
-62.844
-63.499
-64.418
-65.59
-67.001
-68.639
-70.49
-72.54
-74.773
-77.176
-79.733
-82.429
-85.249
-88.178
-91.2
-94.302
-97.469
-100.685
-103.938
-107.214
-110.499
-113.781
-117.046
-120.283
-123.478
-126.62
-129.699
-132.701
-135.618
-138.439
-141.153
-143.752
-146.228
-148.571
-150.774
-152.83
-154.732
-156.475
-158.051
-159.457
-160.686
-161.735
-162.6
-163.276
-163.762
-164.053
-164.149
-164.046
-163.743
-163.239
-162.535
-161.629
-160.523
-159.218
-157.715
-156.016
-154.126
-152.048
-149.787
-147.347
-144.737
-141.962
-139.032
-135.955
-132.74
-129.398
-125.939
-122.375
-118.717
-114.977
-111.167
-107.301
-103.392
-99.455
-95.503
-91.553
-87.619
-83.717
-79.863
-76.072
-72.359
-68.739
-65.226
-61.834
-58.577
-55.468
-52.519
-49.742
-47.146
-44.742
-42.537
-40.539
-38.753
-37.181
-35.823
-34.68
-33.749
-33.026
-32.506
-32.182
-32.047
-32.09
-32.302
-32.67
-33.181
-33.818
-34.564
-35.399
-36.303
-37.252
-38.221
-39.185
-40.12
-41.002
-41.81
-42.519
-43.109
-43.562
-43.86
-43.987
-43.924
-43.646
-43.134
-42.371
-41.342
-40.037
-38.446
-36.561
-34.379
-31.908
-29.156
-26.128
-22.821
-19.218
-15.308
-11.096
-6.592
-1.82
3.194
8.423
13.821
19.319
24.847
30.337
35.744
41.061
46.271
51.347
56.245
60.896
65.257
69.322
73.08
76.527
79.669
82.513
85.123
87.621
90.12
92.723
95.507
98.486
101.687
105.146
108.892
113.009
117.475
122.124
126.714
130.886
134.219
136.368
137.045
135.892
132.793
127.992
122.01
115.853
110.773
107.753
107.193
109.059
112.833
117.427
121.21
121.655
115.449
99.171
71.889
35.539
-7.774
-55.197
-107.273
-170.031
-244.878
-328.129
-409.821
-467.073
-480.047
-438.81
-341.406
-206.467
-60.836
71.368
166.904
219.961
237.899
232.49
221.428
213.082
207.132
201.235
189.363
170.884
150.141
130.718
116.303
108.155
104.927
105.288
107.951
111.358
114.24
115.858
115.853
114.375
111.917
108.919
105.746
102.886
100.823
99.794
99.854
100.862
102.545
104.661
106.999
109.345
111.482
113.27
114.622
115.473
115.814
115.63
114.902
113.632
111.829
109.495
106.651
103.328
99.553
95.372
90.841
86.011
80.945
75.693
70.29
64.768
59.15
53.45
47.682
41.858
35.977
30.049
24.08
18.078
12.053
6.017
-0.022
-6.056
-12.078
-18.078
-24.041
-29.948
-35.78
-41.522
-47.158
-52.672
-58.046
-63.261
-68.304
-73.166
-77.832
-82.291
-86.522
-90.501
-94.212
-97.641
-100.777
-103.62
-106.16
-108.377
-110.258
-111.789
-112.943
-113.691
-113.982
-113.747
-112.941
-111.535
-109.517
-106.894
-103.672
-99.851
-95.448
-90.478
-84.953
-78.897
-72.308
-65.178
-57.544
-49.467
-41.045
-32.437
-23.758
-15.088
-6.506
1.952
10.271
18.45
26.548
34.659
42.845
51.159
59.614
68.196
76.966
86.027
95.52
105.657
116.615
128.545
141.628
156.003
171.731
188.821
207.161
226.551
246.831
267.86
289.523
311.726
334.288
356.974
379.537
401.664
423.048
443.359
462.183
479.119
493.859
506.178
515.98
523.278
528.057
530.288
529.947
527.002
521.506
513.559
503.258
490.733
476.138
459.701
441.77
422.732
402.927
382.639
362.074
341.376
320.726
300.323
280.366
261.067
242.581
225.041
208.602
193.413
179.626
167.317
156.462
146.981
138.796
131.845
126.097
121.531
118.073
115.632
114.098
113.337
113.255
113.765
114.759
116.123
117.721
119.45
121.269
123.172
125.159
127.228
129.362
131.548
133.817
136.208
138.777
141.597
144.702
148.118
151.872
155.989
160.502
165.431
170.765
176.472
182.519
188.875
195.514
202.409
209.507
216.749
224.072
231.405
238.697
245.906
252.993
259.923
266.669
273.206
279.524
285.624
291.502
297.154
302.575
307.757
312.702
317.416
321.904
326.172
330.226
334.067
337.701
341.131
344.36
347.388
350.214
352.833
355.245
357.452
359.455
361.258
362.865
364.278
365.505
366.551
367.424
368.129
368.671
369.055
369.285
369.367
369.304
369.1
368.762
368.292
367.698
366.986
366.166
365.247
364.242
363.164
362.024
360.837
359.617
358.376
357.126
355.877
354.639
353.424
352.242
351.106
350.032
349.034
348.125
347.315
346.616
346.034
345.575
345.242
345.032
344.943
344.978
345.146
345.47
345.966
346.639
347.489
348.508
349.684
351.004
352.44
353.945
355.468
356.96
358.382
359.723
360.977
362.121
363.115
363.905
364.44
364.714
364.742
364.525
364.059
363.339
362.37
361.246
360.099
359.038
358.16
357.509
357.061
356.882
357.128
357.83
358.909
360.102
360.906
360.958
360.113
358.086
354.517
349.287
342.443
334.569
326.921
320.518
316.074
314.362
315.757
319.941
326.16
332.639
336.654
335.577
326.526
306.518
273.22
227.085
171.442
110.158
47.858
-16.581
-89.117
-169.554
-254.037
-327.605
-364.38
-349.305
-275.702
-151.445
-4.96
137.97
254.033
326.868
359.179
358.019
333.231
296.902
254.329
211.094
175.103
151.579
143.965
150.241
161.458
169.828
171.121
165.528
158.228
152.658
149.412
147.699
145.081
140.591
134.911
128.732
122.918
118.04
114.056
110.909
108.577
106.847
105.534
104.492
103.518
102.426
101.085
99.395
97.297
94.774
91.788
88.292
84.255
79.664
74.539
68.9
62.761
56.141
49.065
41.578
33.74
25.611
17.253
8.711
0.02
-8.788
-17.681
-26.636
-35.63
-44.651
-53.694
-62.75
-71.802
-80.835
-89.834
-98.785
-107.679
-116.506
-125.257
-133.92
-142.484
-150.937
-159.264
-167.45
-175.481
-183.339
-191.008
-198.472
-205.717
-212.73
-219.502
-226.023
-232.283
-238.273
-243.988
-249.42
-254.563
-259.411
-263.959
-268.203
-272.139
-275.768
-279.087
-282.098
-284.802
-287.204
-289.309
-291.126
-292.665
-293.936
-294.951
-295.724
-296.268
-296.597
-296.723
-296.662
-296.423
-296.021
-295.471
-294.788
-293.991
-293.101
-292.14
-291.129
-290.094
-289.058
-288.045
-287.08
-286.179
-285.36
-284.642
-284.045
-283.595
-283.311
-283.202
-283.274
-283.528
-283.955
-284.547
-285.288
-286.139
-287.066
-288.032
-289.007
-289.98
-290.947
-291.896
-292.813
-293.679
-294.491
-295.277
-296.081
-296.936
-297.88
-298.947
-300.18
-301.664
-303.471
-305.662
-308.275
-311.297
-314.705
-318.483
-322.619
-327.096
-331.847
-336.735
-341.584
-346.238
-350.545
-354.359
-357.517
-359.794
-360.992
-360.952
-359.558
-356.771
-352.554
-346.851
-339.605
-330.773
-320.395
-308.62
-295.659
-281.707
-266.967
-251.647
-235.998
-220.351
-204.998
-190.174
-176.061
-162.77
-150.437
-139.228
-129.321
-120.883
-114
-108.657
-104.789
-102.335
-101.211
-101.31
-102.468
-104.437
-107.017
-110.068
-113.493
-117.243
-121.233
-125.344
-129.445
-133.411
-137.157
-140.651
-143.873
-146.8
-149.435
-151.806
-153.982
-156.09
-158.213
-160.386
-162.616
-164.881
-167.179
-169.524
-171.926
-174.388
-176.905
-179.462
-182.048
-184.661
-187.279
-189.863
-192.357
-194.682
-196.782
-198.626
-200.193
-201.476
-202.468
-203.16
-203.556
-203.67
-203.514
-203.096
-202.424
-201.502
-200.344
-198.972
-197.413
-195.701
-193.866
-191.936
-189.938
-187.899
-185.843
-183.794
-181.771
-179.789
-177.867
-176.022
-174.275
-172.645
-171.151
-169.809
-168.633
-167.636
-166.829
-166.22
-165.814
-165.616
-165.627
-165.849
-166.282
-166.924
-167.77
-168.816
-170.054
-171.474
-173.062
-174.802
-176.674
-178.661
-180.741
-182.891
-185.092
-187.321
-189.559
-191.79
-193.995
-196.156
-198.254
-200.267
-202.174
-203.954
-205.584
-207.047
-208.33
-209.418
-210.302
-210.978
-211.443
-211.693
-211.72
-211.504
-211.029
-210.285
-209.268
-207.984
-206.452
-204.695
-202.746
-200.655
-198.47
-196.24
-194.013
-191.815
-189.667
-187.587
-185.598
-183.75
-182.092
-180.643
-179.409
-178.375
-177.5
-176.752
-176.072
-175.363
-174.536
-173.499
-172.159
-170.452
-168.333
-165.765
-162.735
-159.192
-155.049
-150.364
-145.329
-140.269
-135.674
-131.983
-129.53
-128.643
-129.644
-132.555
-137.045
-142.46
-147.708
-151.663
-153.569
-153.148
-150.467
-146.229
-141.808
-138.795
-139.599
-147.315
-164.585
-193.392
-233.291
-280.826
-332.554
-385.208
-439.622
-500.529
-566.452
-632.274
-685.237
-703.627
-677.587
-604.822
-490.86
-359.725
-230.692
-120.044
-45
-3.662
9.282
-0.523
-21.476
-52.368
-93.052
-137.862
-180.37
-210.172
-220.008
-211.547
-193.201
-174.752
-162.419
-157.092
-154.522
-150.694
-144.701
-137.577
-131.87
-129.256
-129.19
-130.199
-131.011
-131.055
-130.345
-129.126
-127.474
-125.246
-122.639
-120.112
-117.948
-116.329
-115.257
-114.565
-114.204
-114.227
-114.625
-115.364
-116.407
-117.697
-119.229
-121.023
-123.061
-125.296
-127.648
-130.044
-132.447
-134.842
-137.22
-139.582
-141.918
-144.225
-146.513
-148.781
-151.02
-153.222
-155.372
-157.46
-159.487
-161.455
-163.374
-165.254
-167.103
-168.929
-170.737
-172.528
-174.303
-176.06
-177.792
-179.494
-181.165
-182.803
-184.405
-185.97
-187.496
-188.978
-190.416
-191.803
-193.133
-194.398
-195.589
-196.698
-197.715
-198.632
-199.44
-200.128
-200.689
-201.113
-201.393
-201.519
-201.482
-201.275
-200.888
-200.314
-199.546
-198.576
-197.398
-196.009
-194.403
-192.58
-190.538
-188.28
-185.806
-183.119
-180.223
-177.125
-173.829
-170.343
-166.676
-162.836
-158.835
-154.684
-150.396
-145.983
-141.459
-136.838
-132.133
-127.359
-122.53
-117.66
-112.762
-107.851
-102.94
-98.044
-93.176
-88.349
-83.575
-78.865
-74.231
-69.682
-65.226
-60.872
-56.626
-52.494
-48.481
-44.591
-40.827
-37.191
-33.684
-30.308
-27.06
-23.941
-20.947
-18.078
-15.328
-12.697
-10.179
-7.773
-5.473
-3.276
-1.179
0.824
2.735
4.561
6.305
7.972
9.568
11.098
12.565
13.975
15.332
16.641
17.906
19.131
20.321
21.481
22.614
23.725
24.819
25.9
26.971
28.037
29.102
30.169
31.243
32.326
33.424
34.54
35.678
36.844
38.041
39.274
40.548
41.866
43.233
44.653
46.128
47.662
49.257
50.915
52.638
54.428
56.285
58.21
60.203
62.263
64.388
66.577
68.826
71.132
73.49
75.897
78.346
80.834
83.353
85.899
88.464
91.042
93.626
96.21
98.784
101.34
103.871
106.368
108.823
111.229
113.577
115.862
118.076
120.214
122.272
124.244
126.127
127.916
129.61
131.206
132.702
134.098
135.392
136.587
137.684
138.686
139.595
140.418
141.158
141.819
142.407
142.928
143.386
143.789
144.141
144.45
144.722
144.965
145.187
145.397
145.601
145.809
146.026
146.259
146.515
146.796
147.108
147.453
147.836
148.261
148.731
149.252
149.828
150.465
151.167
151.939
152.783
153.699
154.687
155.745
156.87
158.059
159.307
160.611
161.965
163.367
164.817
166.309
167.838
169.398
170.981
172.585
174.206
175.836
177.47
179.108
180.756
182.43
184.145
185.906
187.717
189.579
191.487
193.438
195.415
197.379
199.287
201.095
202.763
204.281
205.639
206.814
207.777
208.493
208.941
209.134
209.08
208.748
208.132
207.245
206.153
205.018
204.001
203.227
202.843
202.994
203.76
205.15
207.057
209.187
211.235
212.983
214.191
214.609
214.189
213.167
212.086
211.849
213.353
217.077
223.395
232.814
245.351
260.275
276.091
290.307
300.272
304.191
300.282
286.164
260.104
221.387
171.656
115.618
57.805
0.731
-56.473
-115.622
-174.246
-224.866
-253.863
-249.339
-209.048
-138.224
-51.616
37.056
121.429
195.221
257.973
307.38
337.401
350.841
350.03
338.608
323.907
305.814
284.534
262.896
241.681
223.629
210.711
202.367
198.148
197.479
199.597
203.276
206.912
209.479
210.568
210.204
208.735
206.167
202.221
197.348
192.41
187.923
184.22
181.33
178.982
177.151
176.002
175.369
174.916
174.416
173.655
172.576
171.26
169.682
167.774
165.533
162.982
160.153
157.093
153.813
150.312
146.616
142.764
138.806
134.787
130.726
126.639
122.536
118.419
114.293
110.15
105.978
101.775
97.538
93.27
88.974
84.647
80.282
75.88
71.432
66.933
62.38
57.77
53.106
48.399
43.657
38.893
34.123
29.363
24.627
19.93
15.287
10.713
6.223
1.834
-2.437
-6.573
-10.555
-14.363
-17.977
-21.379
-24.55
-27.473
-30.13
-32.506
-34.586
-36.356
-37.806
-38.922
-39.696
-40.12
-40.186
-39.89
-39.229
-38.2
-36.805
-35.046
-32.928
-30.459
-27.647
-24.504
-21.041
-17.273
-13.217
-8.891
-4.312
0.498
5.517
10.722
16.088
21.591
27.205
32.902
38.656
44.441
50.231
55.999
61.72
67.369
72.924
78.361
83.659
88.797
93.757
98.52
103.071
107.396
111.481
115.317
118.895
122.206
125.246
128.012
130.5
132.711
134.647
136.309
137.704
138.837
139.715
140.349
140.748
140.924
140.89
140.66
140.247
139.665
138.93
138.056
137.059
135.953
134.754
133.475
132.131
130.736
129.302
127.843
126.37
124.893
123.423
121.97
120.541
119.144
117.786
116.475
115.214
114.009
112.863
111.781
110.765
109.815
108.934
108.12
107.373
106.691
106.074
105.517
105.02
104.578
104.19
103.85
103.557
103.305
103.093
102.915
102.77
102.653
102.561
102.492
102.443
102.412
102.396
102.395
102.407
102.429
102.461
102.501
102.547
102.598
102.653
102.71
102.769
102.828
102.887
102.944
103
103.053
103.102
103.147
103.187
103.221
103.249
103.269
103.281
103.283
103.274
103.254
103.221
103.172
103.107
103.023
102.919
102.793
102.642
102.465
102.259
102.023
101.755
101.454
101.117
100.744
100.332
99.88
99.386
98.851
98.272
97.65
96.984
96.275
95.523
94.728
93.891
93.012
92.093
91.134
90.138
89.104
88.035
86.932
85.8
84.64
83.456
82.252
81.031
79.797
78.553
77.303
76.052
74.803
73.559
72.327
71.113
69.924
68.769
67.654
66.586
65.575
64.627
63.747
62.939
62.204
61.544
60.962
60.46
60.043
59.715
59.48
59.346
59.32
59.407
59.609
59.926
60.354
60.891
61.537
62.293
63.169
64.171
65.301
66.561
67.95
69.453
71.047
72.693
74.341
75.951
77.48
78.891
80.157
81.241
82.124
82.795
83.226
83.399
83.302
82.926
82.286
81.441
80.457
79.424
78.466
77.671
77.139
76.979
77.268
78.097
79.528
81.577
84.266
87.639
91.721
96.442
101.637
106.958
111.945
116.147
119.124
120.499
119.92
117.32
112.789
106.62
99.815
93.312
87.697
83.642
80.141
75.616
70.354
63.359
55.397
47.457
33.737
10.211
-27.649
-83.447
-148.701
-215.721
-278.853
-334.112
-387.031
-439.256
-483.966
-508.598
-497.665
-444.637
-356.561
-250.752
-145.523
-52.539
24.753
88.839
141.317
181.372
207.055
216.053
208.811
188.046
157.206
121.168
84.553
50.492
21.569
-0.784
-16.113
-23.874
-24.209
-18.681
-9.351
1.846
13.014
23.154
31.791
38.08
41.615
42.731
42.03
40.437
39.02
38.219
38.157
39.118
41.1
43.941
47.497
51.35
54.986
58.182
60.833
62.86
64.329
65.264
65.636
65.516
64.99
64.104
62.913
61.44
59.688
57.697
55.505
53.137
50.628
47.993
45.231
42.348
39.339
36.196
32.93
29.547
26.056
22.47
18.798
15.05
11.238
7.371
3.453
-0.508
-4.503
-8.523
-12.548
-16.564
-20.548
-24.479
-28.338
-32.105
-35.762
-39.294
-42.684
-45.917
-48.98
-51.857
-54.535
-57
-59.239
-61.239
-62.988
-64.474
-65.69
-66.628
-67.281
-67.644
-67.713
-67.488
-66.967
-66.152
-65.044
-63.648
-61.965
-60.001
-57.76
-55.247
-52.47
-49.436
-46.154
-42.635
-38.89
-34.932
-30.775
-26.434
-21.92
-17.249
-12.435
-7.49
-2.427
2.742
8.008
13.357
18.778
24.257
29.784
35.347
40.934
46.53
52.118
57.684
63.217
68.706
74.144
79.523
84.837
90.081
95.258
100.364
105.399
110.355
115.219
119.982
124.647
129.22
133.722
138.17
142.568
146.928
151.254
155.535
159.747
163.848
167.76
171.426
174.796
177.836
180.547
182.919
184.939
186.584
187.801
188.54
188.774
188.474
187.636
186.303
184.511
182.386
180.17
177.982
175.863
173.737
171.309
168.338
164.705
160.217
154.76
148.588
142.175
136.337
132.278
130.842
132.532
137.748
146.268
157.125
168.812
179.106
185.332
185.386
177.67
160.849
134.653
99.85
58.146
12.358
-34.146
-78.353
-117.683
-149.821
-173.404
-188.026
-194.24
-193.678
-188.508
-180.929
-172.846
-165.927
-161.325
-159.58
-160.666
-163.993
-168.673
-173.688
-178.276
-181.915
-184.293
-185.417
-185.486
-184.812
-183.816
-182.937
-182.405
-182.302
-182.624
-183.241
-184.028
-184.861
-185.556
-185.976
-186.067
-185.808
-185.22
-184.323
-183.089
-181.502
-179.567
-177.289
-174.686
-171.788
-168.613
-165.208
-161.642
-157.984
-154.315
-150.69
-147.141
-143.692
-140.359
-137.159
-134.114
-131.237
-128.532
-126.012
-123.691
-121.584
-119.712
-118.083
-116.696
-115.55
-114.642
-113.97
-113.535
-113.338
-113.379
-113.662
-114.19
-114.967
-115.998
-117.286
-118.828
-120.618
-122.648
-124.904
-127.374
-130.045
-132.901
-135.927
-139.107
-142.426
-145.872
-149.436
-153.104
-156.862
-160.693
-164.578
-168.496
-172.426
-176.342
-180.223
-184.045
-187.787
-191.432
-194.971
-198.387
-201.664
-204.782
-207.711
-210.424
-212.902
-215.125
-217.078
-218.76
-220.178
-221.348
-222.311
-223.091
-223.713
-224.204
-224.573
-224.846
-225.045
-225.171
-225.247
-225.298
-225.326
-225.35
-225.368
-225.308
-225.119
-224.734
-224.057
-223.057
-221.671
-219.788
-217.351
-214.289
-210.554
-206.191
-201.15
-195.302
-188.694
-181.468
-173.896
-166.505
-159.702
-153.791
-149.291
-146.574
-145.678
-146.419
-148.14
-150.016
-151.18
-150.411
-146.801
-139.981
-131.214
-123.83
-119.677
-119.325
-122.237
-125.589
-132.826
-150.618
-182.871
-236.165
-307.203
-387.635
-476.037
-562.638
-640.435
-703.58
-732.473
-718.052
-657.707
-551.735
-421.329
-286.578
-165.28
-78.906
-31.213
-19.003
-33.77
-56.428
-76.929
-91.306
-99.299
-107.706
-118.258
-128.843
-137.543
-140.81
-138.029
-131.356
-122.419
-113.116
-105.002
-98.431
-93.653
-90.76
-89.314
-88.788
-88.643
-88.249
-87.093
-84.976
-81.846
-77.755
-72.868
-67.324
-61.292
-54.987
-48.631
-42.404
-36.384
-30.601
-25.069
-19.821
-14.923
-10.433
-6.363
-2.712
0.52
3.327
5.695
7.614
9.119
10.25
11.053
11.579
11.849
11.878
11.682
11.275
10.666
9.865
8.866
7.659
6.244
4.624
2.804
0.796
-1.401
-3.789
-6.364
-9.125
-12.067
-15.18
-18.457
-21.885
-25.448
-29.128
-32.903
-36.75
-40.647
-44.572
-48.502
-52.418
-56.298
-60.12
-63.864
-67.507
-71.028
-74.404
-77.614
-80.636
-83.449
-86.033
-88.37
-90.443
-92.236
-93.737
-94.933
-95.814
-96.37
-96.593
-96.48
-96.024
-95.225
-94.08
-92.591
-90.762
-88.598
-86.106
-83.295
-80.176
-76.763
-73.067
-69.107
-64.898
-60.458
-55.808
-50.968
-45.959
-40.804
-35.526
-30.151
-24.702
-19.203
-13.681
-8.158
-2.659
2.793
8.175
13.467
18.647
23.696
28.596
33.328
37.876
42.226
46.364
50.278
53.956
57.39
60.573
63.498
66.161
68.559
70.691
72.557
74.158
75.497
76.58
77.411
77.997
78.347
78.471
78.378
78.08
77.589
76.916
76.075
75.079
73.94
72.672
71.288
69.8
68.222
66.566
64.844
63.068
61.249
59.4
57.529
55.647
53.763
51.886
50.023
48.181
46.368
44.589
42.849
41.153
39.505
37.908
36.364
34.875
33.441
32.064
30.741
29.473
28.257
27.093
25.978
24.911
23.889
22.909
21.971
21.07
20.206
19.376
18.577
17.809
17.069
16.357
15.671
15.01
14.376
13.767
13.185
12.629
12.1
11.6
11.128
10.686
10.275
9.898
9.556
9.252
8.988
8.768
8.594
8.471
8.399
8.384
8.426
8.53
8.698
8.932
9.235
9.608
10.055
10.576
11.173
11.847
12.597
13.423
14.322
15.293
16.332
17.436
18.602
19.826
21.105
22.436
23.814
25.235
26.694
28.188
29.71
31.254
32.815
34.387
35.962
37.538
39.108
40.67
42.217
43.747
45.255
46.738
48.193
49.616
51.002
52.349
53.655
54.92
56.143
57.328
58.477
59.597
60.694
61.775
62.847
63.915
64.984
66.058
67.141
68.234
69.338
70.456
71.591
72.754
73.953
75.194
76.484
77.825
79.22
80.674
82.184
83.739
85.333
86.962
88.63
90.36
92.165
94.045
96.001
98.019
100.084
102.183
104.282
106.325
108.262
110.04
111.639
113.069
114.331
115.416
116.301
116.935
117.297
117.4
117.245
116.842
116.204
115.343
114.332
113.293
112.34
111.574
111.048
110.767
110.75
111.018
111.632
112.692
114.153
115.846
117.535
118.843
119.457
119.122
117.412
113.919
108.544
101.497
93.528
85.82
79.368
75.053
73.639
75.33
79.807
86.117
92.266
95.545
93.069
81.811
59.025
24.65
-18.863
-68.975
-121.827
-177.723
-241.708
-312.237
-384.309
-445.799
-474.484
-459.057
-397.356
-294.081
-169.407
-40.782
78.016
170.658
230.92
256.755
249.225
218.875
175.5
128.836
89.12
60.407
45.846
44.157
48.044
52.729
53.352
48.417
42.151
36.453
32.183
29.401
25.668
20.131
13.4
5.962
-1.286
-7.677
-13.082
-17.419
-20.605
-22.779
-24.168
-24.907
-25.172
-25.14
-24.975
-24.926
-25.177
-25.814
-26.896
-28.447
-30.474
-32.99
-35.95
-39.235
-42.732
-46.32
-49.889
-53.385
-56.702
-59.681
-62.108
-63.699
-64.224
-63.532
-61.488
-57.977
-52.909
-46.222
-37.959
-28.268
-17.295
-5.175
7.954
21.996
36.799
52.138
67.737
83.269
98.423
112.934
126.557
139.032
150.116
159.618
167.445
173.607
178.134
181.05
182.393
182.201
180.558
177.616
173.56
168.607
162.998
156.947
150.659
144.358
138.259
132.54
127.325
122.671
118.611
115.177
112.393
110.266
108.784
107.893
107.525
107.598
108.009
108.669
109.506
110.438
111.393
112.316
113.168
113.935
114.63
115.256
115.817
116.323
116.789
117.24
117.709
118.227
118.832
119.551
120.398
121.383
122.509
123.77
125.159
126.657
128.232
129.86
131.517
133.18
134.826
136.431
137.966
139.405
140.724
141.899
142.913
143.75
144.396
144.843
145.084
145.113
144.932
144.539
143.933
143.115
142.085
140.844
139.399
137.753
135.914
133.891
131.693
129.333
126.825
124.183
121.421
118.555
115.6
112.574
109.492
106.371
103.228
100.08
96.942
93.829
90.756
87.737
84.785
81.91
79.123
76.432
73.844
71.366
69.003
66.757
64.632
62.628
60.745
58.982
57.336
55.803
54.378
53.056
51.827
50.683
49.614
48.609
47.657
46.745
45.861
44.992
44.124
43.245
42.34
41.398
40.405
39.35
38.22
37.005
35.695
34.281
32.755
31.109
29.339
27.441
25.41
23.246
20.948
18.517
15.955
13.265
10.451
7.519
4.476
1.328
-1.915
-5.243
-8.646
-12.112
-15.629
-19.185
-22.766
-26.358
-29.948
-33.522
-37.067
-40.569
-44.015
-47.392
-50.689
-53.893
-56.993
-59.979
-62.841
-65.571
-68.163
-70.609
-72.906
-75.051
-77.041
-78.877
-80.561
-82.092
-83.476
-84.716
-85.817
-86.784
-87.625
-88.347
-88.959
-89.47
-89.891
-90.233
-90.507
-90.724
-90.896
-91.035
-91.151
-91.254
-91.354
-91.46
-91.582
-91.728
-91.906
-92.125
-92.39
-92.709
-93.086
-93.525
-94.028
-94.594
-95.221
-95.904
-96.637
-97.413
-98.225
-99.065
-99.926
-100.8
-101.682
-102.567
-103.449
-104.32
-105.172
-105.992
-106.767
-107.485
-108.133
-108.701
-109.181
-109.562
-109.839
-110.013
-110.083
-110.046
-109.894
-109.605
-109.161
-108.555
-107.784
-106.856
-105.786
-104.59
-103.293
-101.945
-100.596
-99.294
-98.088
-96.991
-96.009
-95.157
-94.459
-93.957
-93.693
-93.667
-93.858
-94.243
-94.798
-95.496
-96.294
-97.089
-97.752
-98.161
-98.194
-97.791
-96.925
-95.565
-93.653
-91.097
-87.9
-84.221
-80.353
-76.659
-73.463
-70.991
-69.479
-69.277
-70.51
-73.008
-76.361
-79.774
-82.456
-83.876
-83.778
-82.187
-79.651
-77.146
-75.902
-77.833
-85.183
-100.161
-124.648
-158.257
-198.287
-242.099
-286.671
-332.991
-386.481
-446.823
-510.589
-567.037
-594.957
-583.099
-527.675
-431.875
-316.041
-197.422
-90.789
-13.396
31.968
47.377
39.453
24.405
10.772
1.847
-2.386
-8.282
-17.226
-27.086
-36.04
-40.745
-40.526
-37.115
-31.623
-25.427
-20.006
-15.917
-13.505
-12.983
-13.944
-15.818
-18.212
-20.674
-22.739
-24.22
-25.045
-25.194
-24.849
-24.219
-23.477
-22.861
-22.578
-22.712
-23.306
-24.373
-25.897
-27.902
-30.412
-33.407
-36.862
-40.755
-45.059
-49.764
-54.848
-60.253
-65.908
-71.737
-77.664
-83.64
-89.628
-95.592
-101.504
-107.337
-113.071
-118.7
-124.222
-129.629
-134.913
-140.06
-145.061
-149.912
-154.619
-159.181
-163.605
-167.891
-172.042
-176.058
-179.942
-183.689
-187.296
-190.758
-194.065
-197.214
-200.199
-203.016
-205.664
-208.139
-210.438
-212.559
-214.497
-216.249
-217.811
-219.176
-220.338
-221.29
-222.026
-222.537
-222.818
-222.861
-222.661
-222.209
-221.5
-220.528
-219.286
-217.77
-215.975
-213.897
-211.532
-208.878
-205.934
-202.702
-199.183
-195.382
-191.304
-186.956
-182.346
-177.485
-172.384
-167.054
-161.51
-155.767
-149.839
-143.746
-137.505
-131.135
-124.657
-118.092
-111.461
-104.786
-98.089
-91.392
-84.718
-78.088
-71.523
-65.044
-58.671
-52.425
-46.324
-40.384
-34.623
-29.055
-23.693
-18.548
-13.628
-8.943
-4.496
-0.291
3.669
7.386
10.862
14.101
17.108
19.89
22.455
24.815
26.979
28.961
30.772
32.427
33.941
35.327
36.601
37.777
38.872
39.9
40.875
41.814
42.729
43.635
44.545
45.472
46.426
47.419
48.459
49.555
50.714
51.941
53.241
54.616
56.069
57.601
59.21
60.896
62.656
64.485
66.381
68.337
70.349
72.409
74.513
76.653
78.824
81.017
83.228
85.45
87.678
89.904
92.125
94.335
96.529
98.704
100.855
102.98
105.075
107.139
109.17
111.168
113.131
115.06
116.956
118.821
120.655
122.462
124.243
126.002
127.743
129.467
131.18
132.883
134.581
136.276
137.97
139.666
141.365
143.067
144.775
146.486
148.202
149.92
151.638
153.354
155.065
156.766
158.453
160.121
161.766
163.381
164.96
166.498
167.987
169.422
170.794
172.097
173.324
174.466
175.515
176.464
177.305
178.031
178.635
179.112
179.456
179.662
179.727
179.647
179.42
179.043
178.518
177.842
177.018
176.048
174.934
173.682
172.296
170.785
169.156
167.418
165.58
163.652
161.644
159.569
157.437
155.262
153.056
150.835
148.614
146.409
144.238
142.12
140.071
138.109
136.252
134.516
132.916
131.467
130.181
129.069
128.143
127.414
126.893
126.593
126.525
126.7
127.13
127.822
128.781
130.008
131.499
133.249
135.256
137.516
140.033
142.807
145.831
149.099
152.602
156.32
160.228
164.287
168.44
172.638
176.834
180.987
185.075
189.079
192.977
196.75
200.374
203.83
207.11
210.211
213.127
215.862
218.441
220.923
223.411
226.002
228.78
231.794
235.061
238.605
242.446
246.611
251.103
255.856
260.818
265.983
271.275
276.549
281.559
285.798
288.725
290.075
289.635
287.227
283.013
277.27
270.499
263.89
258.736
255.65
254.859
256.189
258.662
261.198
262.64
260.488
251.622
233.925
206.03
169.034
126.866
82.552
37.671
-8.68
-58.664
-109.841
-154.781
-180.749
-174.148
-130.336
-51.64
52.526
165.938
276.444
371.567
438.287
472.8
473.234
445.011
401.448
350.646
302.135
260.719
226.303
202.994
188.995
183.484
187.186
196.149
211.236
232.621
257.337
284.211
309.844
330.855
346.578
356.546
360.855
360.555
356.72
350.604
343.624
336.493
329.072
321.214
312.71
302.935
291.158
276.225
256.785
232.425
203.377
169.929
132.828
93.148
52.175
11.99
-25.211
-58.019
-85.294
-106.266
-120.938
-129.558
-132.878
-132.557
-130.125
-126.77
-123.764
-121.921
-121.556
-122.948
-125.902
-129.701
-133.958
-138.403
-142.652
-146.656
-150.473
-154.114
-157.858
-162.084
-166.904
-172.35
-178.421
-184.953
-191.817
-198.884
-205.911
-212.685
-219.064
-224.949
-230.311
-235.149
-239.433
-243.148
-246.3
-248.896
-250.971
-252.558
-253.677
-254.364
-254.659
-254.614
-254.293
-253.74
-252.976
-252.016
-250.86
-249.508
-247.962
-246.216
-244.255
-242.072
-239.657
-237.009
-234.127
-231.01
-227.65
-224.041
-220.18
-216.067
-211.709
-207.113
-202.291
-197.255
-192.022
-186.609
-181.039
-175.331
-169.501
-163.57
-157.553
-151.47
-145.341
-139.184
-133.019
-126.865
-120.741
-114.669
-108.668
-102.756
-96.952
-91.273
-85.735
-80.354
-75.145
-70.122
-65.296
-60.679
-56.282
-52.113
-48.182
-44.493
-41.053
-37.864
-34.93
-32.251
-29.827
-27.659
-25.742
-24.074
-22.652
-21.469
-20.521
-19.8
-19.299
-19.011
-18.928
-19.041
-19.342
-19.821
-20.469
-21.277
-22.236
-23.336
-24.567
-25.92
-27.386
-28.954
-30.616
-32.362
-34.182
-36.068
-38.009
-39.997
-42.021
-44.073
-46.142
-48.218
-50.291
-52.353
-54.392
-56.399
-58.365
-60.28
-62.133
-63.916
-65.618
-67.231
-68.743
-70.145
-71.427
-72.578
-73.59
-74.451
-75.153
-75.686
-76.042
-76.211
-76.186
-75.959
-75.523
-74.873
-74.003
-72.91
-71.589
-70.038
-68.258
-66.248
-64.01
-61.546
-58.861
-55.961
-52.852
-49.543
-46.041
-42.356
-38.501
-34.486
-30.325
-26.032
-21.621
-17.108
-12.51
-7.843
-3.125
1.625
6.39
11.151
15.891
20.591
25.233
29.801
34.278
38.647
42.893
47.002
50.958
54.75
58.364
61.791
65.02
68.043
70.854
73.448
75.822
77.972
79.897
81.599
83.077
84.335
85.377
86.205
86.827
87.248
87.477
87.524
87.399
87.114
86.679
86.108
85.413
84.606
83.699
82.706
81.638
80.509
79.33
78.116
76.879
75.634
74.396
73.18
72
70.868
69.797
68.797
67.877
67.043
66.298
65.647
65.094
64.639
64.29
64.053
63.933
63.933
64.057
64.302
64.668
65.152
65.742
66.429
67.205
68.065
69.018
70.072
71.229
72.485
73.831
75.245
76.705
78.182
79.625
80.99
82.229
83.3
84.191
84.899
85.419
85.738
85.823
85.641
85.19
84.479
83.521
82.355
81.016
79.558
78.095
76.725
75.545
74.662
74.116
73.909
74.068
74.598
75.531
76.966
78.854
80.996
83.19
85.135
86.487
86.955
86.212
83.849
79.763
74.286
67.83
60.956
54.69
50.059
47.411
47.107
48.051
47.014
42.944
35.673
25.461
15.478
4.679
-11.524
-37.471
-79.533
-139.588
-215.683
-302.994
-390.961
-467.82
-516.557
-521.594
-476.231
-379.862
-248.804
-108.049
19.128
109.499
156.441
166.677
152.061
131.388
114.245
101.761
92.451
79.943
63.178
45.328
28.9
17.51
12.195
11.337
13.569
17.214
20.442
22.443
22.844
21.418
18.526
14.711
10.389
6.088
2.399
-0.41
-2.268
-3.174
-3.349
-3.035
-2.416
-1.752
-1.288
-1.136
-1.357
-1.98
-2.995
-4.44
-6.358
-8.748
-11.604
-14.92
-18.688
-22.911
-27.585
-32.668
-38.108
-43.85
-49.832
-56.025
-62.406
-68.955
-75.653
-82.484
-89.435
-96.507
-103.708
-111.039
-118.498
-126.078
-133.775
-141.593
-149.539
-157.613
-165.811
-174.125
-182.545
-191.067
-199.692
-208.409
-217.197
-226.029
-234.874
-243.697
-252.46
-261.114
-269.592
-277.823
-285.744
-293.295
-300.449
-307.179
-313.455
-319.245
-324.517
-329.264
-333.507
-337.278
-340.591
-343.462
-345.918
-348.016
-349.87
-351.581
-353.234
-354.894
-356.583
-358.32
-360.122
-361.979
-363.849
-365.631
-367.167
-368.283
-368.849
-368.743
-367.824
-365.906
-362.727
-358.068
-351.75
-343.628
-333.601
-321.553
-307.396
-291.107
-272.75
-252.492
-230.575
-207.277
-182.83
-157.484
-131.52
-105.277
-79.167
-53.539
-28.691
-4.893
17.605
38.509
57.556
74.568
89.467
102.268
113.059
121.952
129.044
134.476
138.428
141.125
142.849
143.812
144.183
144.116
143.769
143.35
143.05
142.994
143.245
143.82
144.705
145.883
147.339
149.009
150.808
152.63
154.347
155.887
157.212
158.287
159.081
159.542
159.624
159.318
158.642
157.622
156.284
154.652
152.748
150.627
148.352
145.987
143.604
141.246
138.942
136.718
134.592
132.584
130.708
128.966
127.346
125.846
124.464
123.202
122.059
121.025
120.087
119.229
118.438
117.702
117.011
116.356
115.728
115.123
114.535
113.964
113.411
112.874
112.35
111.835
111.327
110.824
110.323
109.825
109.327
108.831
108.338
107.849
107.369
106.898
106.439
105.993
105.563
105.15
104.757
104.384
104.034
103.707
103.407
103.133
102.887
102.669
102.476
102.309
102.165
102.042
101.937
101.846
101.766
101.691
101.618
101.541
101.452
101.345
101.213
101.047
100.841
100.589
100.284
99.918
99.486
98.983
98.409
97.759
97.028
96.213
95.309
94.315
93.231
92.053
90.775
89.395
87.911
86.328
84.654
82.897
81.065
79.169
77.222
75.239
73.24
71.241
69.248
67.275
65.333
63.445
61.647
59.967
58.423
57.03
55.793
54.711
53.779
52.971
52.239
51.547
50.863
50.171
49.477
48.785
48.102
47.424
46.739
46.016
45.219
44.33
43.351
42.328
41.348
40.504
39.877
39.57
39.703
40.305
41.344
42.617
43.727
44.455
44.8
44.795
44.553
44.236
43.917
44.07
45.613
48.964
54.06
60.485
67.285
73.565
78.72
81.431
79.733
72.24
58.01
36.968
10.271
-20.918
-55.652
-92.108
-127.879
-160.869
-188.985
-211.145
-227.745
-239.256
-246.048
-249.005
-249.061
-246.939
-243.785
-240.22
-235.832
-230.353
-223.96
-217.069
-210.879
-207.32
-207.938
-214.196
-228.306
-252.325
-287.301
-333.565
-389.017
-448.808
-508.755
-566.095
-620.539
-673.36
-722.733
-761.745
-779.03
-765.121
-717.802
-642.579
-550.242
-450.623
-351.076
-258.651
-182.867
-134.317
-118.243
-131.732
-162.964
-197.204
-225.207
-244.662
-258.76
-270.826
-281.113
-287.639
-287.469
-280.535
-269.282
-256.338
-244.407
-234.934
-228.201
-224.621
-224.564
-227.48
-232.218
-237.569
-242.186
-245.352
-247.006
-247.028
-245.343
-242.27
-238.281
-234.066
-230.717
-228.774
-228.231
-228.893
-230.012
-230.612
-229.874
-226.689
-219.555
-207.558
-190.223
-167.599
-140.894
-111.694
-81.513
-51.948
-24.696
-1.083
17.694
30.838
38.748
42.426
43.048
41.606
38.856
35.45
32.183
29.908
28.816
28.525
28.351
27.819
26.837
25.428
23.529
20.871
17.341
13.15
8.765
4.632
0.94
-2.296
-5.12
-7.518
-9.436
-10.888
-11.999
-12.957
-13.882
-14.811
-15.712
-16.521
-17.222
-17.831
-18.367
-18.844
-19.255
-19.577
-19.804
-19.934
-19.955
-19.842
-19.546
-18.992
-18.131
-16.941
-15.411
-13.552
-11.368
-8.859
-6.032
-2.905
0.502
4.173
8.092
12.249
16.629
21.205
25.947
30.818
35.784
40.816
45.886
50.968
56.036
61.067
66.041
70.944
75.758
80.466
85.05
89.493
93.779
97.895
101.828
105.567
109.104
112.434
115.553
118.46
121.157
123.644
125.927
128.009
129.898
131.601
133.127
134.485
135.687
136.744
137.67
138.476
139.178
139.787
140.317
140.781
141.192
141.561
141.899
142.214
142.517
142.815
143.115
143.424
143.747
144.087
144.447
144.828
145.231
145.654
146.093
146.544
147.001
147.46
147.91
148.345
148.756
149.133
149.466
149.745
149.96
150.101
150.158
150.122
149.982
149.732
149.363
148.869
148.245
147.485
146.588
145.549
144.369
143.048
141.588
139.991
138.262
136.406
134.431
132.345
130.157
127.878
125.521
123.097
120.62
118.105
115.567
113.021
110.482
107.968
105.493
103.073
100.725
98.463
96.303
94.257
92.338
90.558
88.927
87.454
86.147
85.013
84.057
83.284
82.695
82.293
82.076
82.043
82.189
82.508
82.994
83.637
84.428
85.355
86.406
87.566
88.824
90.164
91.571
93.029
94.521
96.031
97.542
99.037
100.499
101.911
103.257
104.522
105.694
106.759
107.706
108.525
109.205
109.738
110.117
110.335
110.386
110.267
109.975
109.509
108.872
108.068
107.104
105.988
104.733
103.35
101.851
100.247
98.552
96.777
94.935
93.032
91.082
89.095
87.086
85.073
83.075
81.107
79.187
77.328
75.542
73.845
72.246
70.747
69.352
68.065
66.901
65.888
65.047
64.386
63.908
63.603
63.458
63.463
63.59
63.785
63.997
64.169
64.264
64.284
64.229
64.087
63.84
63.441
62.862
62.119
61.23
60.214
59.093
57.882
56.643
55.494
54.568
54.01
53.923
54.344
55.305
56.805
58.852
61.529
64.785
68.412
72.16
75.635
78.492
80.655
81.956
82.082
80.979
78.673
75.442
72.173
69.603
67.896
67.079
66.877
66.598
65.611
62.858
56.52
44.711
25.876
-0.973
-35.91
-77.196
-121.803
-166.825
-209.799
-251.231
-293.2
-334.457
-370.576
-392.316
-388.668
-355.281
-292.228
-204.334
-103.182
0.104
91.387
153.926
181.08
174.519
145.051
112.087
87.656
74.984
71.582
69.589
65.219
59.426
54.067
51.426
51.499
52.479
52.686
51.014
47.267
41.716
34.721
26.814
18.544
10.507
3.33
-2.685
-7.469
-11.012
-13.427
-14.848
-15.368
-15.151
-14.398
-13.232
-11.781
-10.191
-8.546
-6.949
-5.5
-4.248
-3.24
-2.51
-2.067
-1.907
-2.025
-2.399
-3.013
-3.859
-4.912
-6.148
-7.531
-9.006
-10.541
-12.112
-13.705
-15.314
-16.938
-18.577
-20.244
-21.96
-23.743
-25.606
-27.557
-29.597
-31.73
-33.964
-36.302
-38.752
-41.313
-43.979
-46.742
-49.595
-52.523
-55.511
-58.539
-61.581
-64.615
-67.618
-70.57
-73.449
-76.233
-78.896
-81.418
-83.775
-85.945
-87.904
-89.629
-91.096
-92.284
-93.172
-93.741
-93.973
-93.853
-93.366
-92.499
-91.244
-89.592
-87.538
-85.078
-82.211
-78.941
-75.27
-71.207
-66.76
-61.944
-56.771
-51.259
-45.427
-39.297
-32.891
-26.233
-19.35
-12.268
-5.015
2.378
9.884
17.471
25.108
32.764
40.409
48.011
55.54
62.966
70.261
77.397
84.347
91.086
97.591
103.841
109.816
115.497
120.87
125.921
130.639
135.016
139.046
142.725
146.051
149.026
151.652
153.935
155.881
157.499
158.8
159.795
160.499
160.926
161.091
161.011
160.704
160.187
159.479
158.598
157.563
156.393
155.107
153.722
152.257
150.729
149.156
147.553
145.935
144.318
142.713
141.133
139.588
138.086
136.636
135.245
133.916
132.654
131.462
130.34
129.289
128.308
127.395
126.547
125.761
125.033
124.357
123.729
123.145
122.598
122.085
121.6
121.138
120.695
120.266
119.847
119.433
119.022
118.609
118.192
117.768
117.336
116.895
116.445
115.985
115.517
115.043
114.563
114.082
113.6
113.122
112.651
112.19
111.745
111.318
110.915
110.54
110.195
109.886
109.613
109.38
109.185
109.028
108.908
108.824
108.771
108.746
108.744
108.759
108.785
108.816
108.842
108.854
108.842
108.795
108.701
108.549
108.324
108.015
107.607
107.089
106.446
105.667
104.74
103.652
102.39
100.943
99.3
97.45
95.384
93.094
90.575
87.822
84.833
81.61
78.155
74.471
70.564
66.441
62.113
57.588
52.881
48.004
42.973
37.807
32.526
27.15
21.702
16.208
10.691
5.18
-0.299
-5.72
-11.059
-16.29
-21.393
-26.344
-31.126
-35.719
-40.105
