Name
Date of Birth,"Jun 12, 2006"
Recorded Date,2023-03-04 20:59:13 -0500
Classification,Sinus Rhythm
Symptoms,
Software Version,1.90
Device,"Watch6,7"
Sample Rate,512 hertz


Lead,Lead I
Unit,µV

-40.944
-44.234
-47.36
-50.232
-52.72
-54.64
-55.867
-56.33
-55.979
-54.804
-52.782
-49.873
-46.093
-41.493
-36.139
-30.102
-23.408
-16.043
-8.044
0.516
9.517
18.807
28.306
37.994
47.836
57.783
67.733
77.568
87.278
96.874
106.261
115.196
123.258
129.971
135.029
138.183
139.094
137.493
133.271
126.693
118.521
109.631
100.975
93.607
88.502
86.692
87.877
89.678
89.599
84.897
75.021
63.809
53.003
41.798
26.563
-4.008
-58.989
-141.677
-252.998
-382.795
-515.349
-634.509
-717.932
-747.24
-711.804
-608.271
-448.591
-255.465
-56.613
119.942
255.195
342.166
385.91
398.175
390.332
370.358
340.574
302.882
262.974
227.023
201.451
188.472
183.071
180.404
177.647
174.431
174.39
179.459
188.216
198.303
206.619
211.137
211.729
208.832
203.126
195.513
187.06
178.844
171.614
165.839
161.623
158.849
157.404
157.014
157.237
157.556
157.538
156.928
155.643
153.687
151.059
147.755
143.785
139.205
134.088
128.475
122.391
115.841
108.834
101.42
93.665
85.652
77.462
69.152
60.756
52.304
43.818
35.314
26.808
18.301
9.78
1.243
-7.308
-15.867
-24.425
-32.982
-41.543
-50.116
-58.701
-67.297
-75.895
-84.487
-93.062
-101.608
-110.108
-118.542
-126.887
-135.122
-143.229
-151.189
-158.981
-166.586
-173.981
-181.146
-188.06
-194.7
-201.045
-207.072
-212.758
-218.082
-223.023
-227.56
-231.674
-235.347
-238.562
-241.302
-243.553
-245.304
-246.542
-247.258
-247.445
-247.098
-246.214
-244.794
-242.838
-240.353
-237.344
-233.822
-229.799
-225.29
-220.312
-214.882
-209.023
-202.758
-196.111
-189.108
-181.776
-174.144
-166.243
-158.102
-149.754
-141.229
-132.561
-123.78
-114.92
-106.013
-97.089
-88.179
-79.313
-70.52
-61.827
-53.261
-44.846
-36.606
-28.561
-20.731
-13.135
-5.786
1.302
8.117
14.651
20.896
26.85
32.508
37.871
42.939
47.717
52.207
56.417
60.352
64.021
67.433
70.597
73.525
76.227
78.714
80.999
83.094
85.012
86.765
88.366
89.828
91.162
92.381
93.496
94.518
95.459
96.327
97.133
97.886
98.593
99.262
99.9
100.512
101.103
101.676
102.235
102.781
103.317
103.843
104.361
104.87
105.372
105.869
106.357
106.837
107.306
107.764
108.209
108.644
109.064
109.462
109.845
110.218
110.583
110.947
111.3
111.625
111.932
112.228
112.484
112.673
112.776
112.762
112.648
112.474
112.213
111.816
111.393
111.075
110.777
110.504
110.275
109.798
109.846
111.171
112.686
114.059
113.296
108.013
100.839
93.526
88.682
89.897
93.991
98.27
100.89
98.799
94.179
89.239
84.473
81.228
78.729
75.976
73.169
70.192
67.123
64.176
61.234
58.202
55.131
52.042
48.936
45.825
42.731
39.67
36.68
33.8
31.037
28.396
25.896
23.554
21.385
19.404
17.614
16.018
14.623
13.443
12.495
11.803
11.385
11.25
11.407
11.861
12.611
13.648
14.953
16.487
18.213
20.103
22.128
24.268
26.491
28.756
31.017
33.223
35.327
37.292
39.106
40.756
42.254
43.623
44.886
46.115
47.397
48.826
50.508
52.537
54.975
57.929
61.572
65.983
71.152
76.919
82.871
88.603
93.815
98.12
101.072
102.409
102.09
100.558
98.912
98.255
99.447
103.293
110.403
120.981
134.699
150.121
164.646
175.436
179.572
174.12
156.427
124.011
76.044
14.816
-55.718
-130.751
-207.632
-288.408
-374.795
-465.304
-551.587
-615.875
-639.084
-606.867
-515.268
-374.109
-202.202
-24.082
137.421
265.684
350.38
392.793
399.085
376.406
336.511
286.57
234.289
190.865
159.08
139.737
129.841
119.68
106.471
91.456
77.151
69.778
71.382
80.106
93.869
109.268
123.54
135.509
144.523
150.433
153.52
154.192
152.845
150.04
146.692
143.724
141.687
140.816
141.024
142.014
143.565
145.478
147.442
149.124
150.331
150.992
151.147
150.912
150.355
149.501
148.377
147.01
145.414
143.595
141.558
139.306
136.859
134.258
131.541
128.749
125.902
123
120.041
117.019
113.938
110.808
107.669
104.591
101.65
98.938
96.526
94.455
92.74
91.374
90.321
89.516
88.915
88.475
88.156
87.934
87.778
87.653
87.492
87.175
86.558
85.482
83.81
81.438
78.301
74.34
69.559
64.027
57.809
51.005
43.718
36.028
28.029
19.834
11.588
3.493
-4.202
-11.262
-17.466
-22.617
-26.549
-29.081
-30.092
-29.552
-27.446
-23.811
-18.703
-12.156
-4.226
4.982
15.338
26.662
38.723
51.323
64.28
77.406
90.536
103.474
116.059
128.199
139.826
150.899
161.392
171.264
180.485
189.077
197.073
204.533
211.547
218.167
224.433
230.393
236.082
241.55
246.838
251.952
256.88
261.612
266.133
270.441
274.531
278.375
281.939
285.187
288.078
290.589
292.711
294.435
295.757
296.679
297.206
297.355
297.155
296.629
295.796
294.677
293.292
291.664
289.825
287.801
285.62
283.306
280.882
278.367
275.783
273.144
270.464
267.755
265.025
262.285
259.545
256.816
254.107
251.426
248.782
246.18
243.626
241.125
238.679
236.289
233.956
231.681
229.464
227.303
225.2
223.152
221.159
219.218
217.33
215.491
213.699
211.953
210.252
208.592
206.973
205.392
203.848
202.34
200.864
199.421
198.006
196.619
195.256
193.915
192.594
191.292
190.004
188.729
187.465
186.209
184.958
183.71
182.461
181.207
179.945
178.671
177.382
176.072
174.737
173.373
171.974
170.535
169.052
167.519
165.93
164.281
162.568
160.787
158.933
157.005
155
152.917
150.758
148.522
146.213
143.831
141.379
138.862
136.284
133.651
130.969
128.244
125.486
122.707
119.92
117.14
114.38
111.655
108.983
106.379
103.859
101.437
99.123
96.931
94.874
92.967
91.224
89.657
88.276
87.093
86.12
85.364
84.832
84.525
84.439
84.574
84.935
85.529
86.369
87.464
88.81
90.405
92.249
94.328
96.626
99.109
101.723
104.422
107.164
109.908
112.62
115.25
117.742
120.043
122.097
123.858
125.298
126.391
127.12
127.497
127.544
127.313
126.909
126.429
125.984
125.701
125.663
125.982
126.811
128.217
130.223
132.776
135.629
138.495
141.154
143.293
144.573
144.818
143.866
141.811
139.279
136.991
135.54
135.464
137.221
141.025
146.985
154.898
162.493
166.145
163.17
150.886
129.999
104.909
75.931
42.341
0.743
-58.017
-135.693
-230.347
-339.121
-450.436
-555.455
-645.081
-703.439
-718.972
-681.692
-587.296
-446.193
-276.578
-103.168
48.994
164.179
235.037
265.657
265.284
241.268
203.26
157.268
110.281
73.728
51.172
42.694
43.622
42.756
36.132
24.64
11.208
2.426
0.584
3.928
10.547
17.397
22.219
24.745
25.017
23.125
19.494
14.53
8.5
2
-4.074
-9.258
-13.324
-16.161
-18.012
-19.142
-19.739
-20.135
-20.722
-21.72
-23.261
-25.397
-28.057
-31.206
-34.833
-38.888
-43.327
-48.117
-53.233
-58.661
-64.389
-70.378
-76.566
-82.907
-89.362
-95.907
-102.531
-109.227
-115.988
-122.815
-129.721
-136.709
-143.777
-150.919
-158.122
-165.38
-172.69
-180.052
-187.468
-194.937
-202.455
-210.014
-217.605
-225.214
-232.821
-240.4
-247.921
-255.353
-262.669
-269.843
-276.849
-283.662
-290.254
-296.601
-302.682
-308.472
-313.944
-319.065
-323.796
-328.1
-331.96
-335.361
-338.3
-340.785
-342.819
-344.411
-345.581
-346.34
-346.686
-346.608
-346.072
-345.041
-343.502
-341.454
-338.917
-335.917
-332.45
-328.512
-324.095
-319.172
-313.723
-307.721
-301.11
-293.861
-285.995
-277.561
-268.669
-259.451
-250.004
-240.406
-230.718
-220.985
-211.284
-201.694
-192.279
-183.128
-174.332
-165.996
-158.271
-151.276
-145.058
-139.622
-134.904
-130.792
-127.218
-124.13
-121.477
-119.229
-117.343
-115.771
-114.497
-113.487
-112.691
-112.04
-111.42
-110.731
-109.937
-109.027
-108.042
-107.058
-106.119
-105.259
-104.521
-103.922
-103.479
-103.202
-103.074
-103.074
-103.201
-103.466
-103.904
-104.547
-105.4
-106.453
-107.679
-109.034
-110.486
-112.007
-113.561
-115.122
-116.674
-118.205
-119.72
-121.228
-122.73
-124.222
-125.694
-127.134
-128.535
-129.893
-131.206
-132.472
-133.692
-134.864
-135.991
-137.075
-138.112
-139.097
-140.024
-140.88
-141.659
-142.352
-142.952
-143.454
-143.853
-144.145
-144.328
-144.401
-144.364
-144.215
-143.953
-143.578
-143.09
-142.491
-141.783
-140.968
-140.051
-139.037
-137.93
-136.739
-135.471
-134.134
-132.736
-131.288
-129.799
-128.28
-126.741
-125.195
-123.654
-122.13
-120.635
-119.182
-117.782
-116.447
-115.19
-114.02
-112.947
-111.979
-111.125
-110.391
-109.783
-109.305
-108.961
-108.755
-108.686
-108.755
-108.961
-109.299
-109.767
-110.356
-111.061
-111.873
-112.782
-113.776
-114.846
-115.977
-117.158
-118.373
-119.606
-120.837
-122.048
-123.22
-124.334
-125.368
-126.305
-127.124
-127.81
-128.352
-128.736
-128.951
-128.983
-128.82
-128.45
-127.867
-127.06
-126.022
-124.746
-123.229
-121.473
-119.487
-117.277
-114.846
-112.195
-109.318
-106.213
-102.884
-99.337
-95.582
-91.636
-87.521
-83.271
-78.939
-74.568
-70.201
-65.877
-61.625
-57.482
-53.494
-49.7
-46.144
-42.873
-39.922
-37.313
-35.048
-33.098
-31.414
-29.942
-28.613
-27.353
-26.072
-24.666
-23.05
-21.143
-18.896
-16.238
-13.007
-9.117
-4.605
0.374
5.458
10.25
14.496
17.846
19.736
19.855
18.252
15.229
11.669
8.583
6.605
6.549
9.639
15.629
22.63
28.943
31.892
31.27
30.411
28.852
23.294
6.785
-31.123
-93.602
-176.805
-272.707
-370.607
-465.482
-555.211
-635.112
-697.642
-728.131
-711.796
-642.412
-521.946
-365.65
-196.278
-35.534
96.937
191.449
246.701
266.414
258.055
227.525
181.962
129.702
80.319
43.485
22.922
16.401
16.451
15.67
11.555
5.602
2.726
6.034
14.778
26.602
37.791
45.877
50.574
52.117
51.076
48.218
44.124
39.461
35.173
31.915
29.903
29.232
29.772
31.225
33.33
35.723
37.937
39.7
40.886
41.429
41.369
40.742
39.54
37.807
35.606
32.967
29.912
26.447
22.567
18.302
13.704
8.833
3.741
-1.539
-6.99
-12.594
-18.341
-24.22
-30.223
-36.354
-42.614
-48.994
-55.482
-62.063
-68.726
-75.465
-82.274
-89.149
-96.082
-103.057
-110.058
-117.067
-124.061
-131.017
-137.907
-144.7
-151.368
-157.884
-164.222
-170.358
-176.264
-181.913
-187.278
-192.335
-197.061
-201.43
-205.419
-209.005
-212.167
-214.885
-217.145
-218.93
-220.226
-221.022
-221.307
-221.076
-220.325
-219.055
-217.269
-214.967
-212.154
-208.837
-205.027
-200.737
-195.986
-190.789
-185.163
-179.132
-172.723
-165.964
-158.888
-151.521
-143.885
-136.005
-127.909
-119.628
-111.196
-102.647
-94.011
-85.315
-76.591
-67.857
-59.132
-50.45
-41.84
-33.323
-24.93
-16.677
-8.572
-0.728
6.741
13.873
20.693
27.268
33.718
39.914
45.657
51.149
56.652
61.876
66.604
70.56
73.024
75.039
77.88
80.443
82.354
81.9
76.973
70.941
66.556
66.493
73.842
84.96
96.724
106.587
111.542
114.637
117.916
121.208
123.191
118.213
103.008
80.566
58.692
46.908
50.568
66.754
85.886
99.135
102.358
97.016
89.028
82.766
79.416
78.458
78.115
77.509
76.921
76.547
76.493
76.689
76.93
77.158
77.399
77.631
77.814
77.96
78.131
78.402
78.828
79.418
80.145
80.999
81.983
83.1
84.349
85.727
87.226
88.841
90.567
92.399
94.332
96.357
98.465
100.645
102.885
105.177
107.515
109.889
112.294
114.72
117.155
119.59
122.012
124.413
126.78
129.103
131.37
133.571
135.693
137.728
139.666
141.499
143.216
144.81
146.274
147.602
148.789
149.832
150.728
151.475
152.075
152.527
152.836
153.005
153.04
152.944
152.727
152.394
151.955
151.419
150.796
150.096
149.33
148.512
147.659
146.786
145.907
145.039
144.2
143.406
142.674
142.016
141.443
140.967
140.597
140.346
140.225
140.245
140.414
140.74
141.233
141.897
142.737
143.751
144.932
146.274
147.773
149.426
151.241
153.219
155.356
157.648
160.085
162.648
165.311
168.04
170.78
173.488
176.121
178.636
181.007
183.202
185.191
186.946
188.43
189.608
190.454
190.952
191.108
190.964
190.574
190.012
189.378
188.757
188.246
187.96
187.985
188.403
189.287
190.669
192.609
195.213
198.496
202.347
206.516
210.563
214.053
216.639
217.932
217.498
215.08
210.703
204.803
198.314
192.216
187.277
184.085
182.953
183.966
186.792
190.196
192.26
189.844
178.788
156.966
123.47
79.921
32.76
-15.26
-64.971
-118.982
-186.77
-271.884
-366.535
-457.644
-523.535
-543.155
-507.799
-418.085
-281.711
-116.215
58.834
226.055
362.548
451.966
489.068
472.862
418.698
348.626
280.029
231.085
206.528
199.372
200.936
197.637
183.394
161.393
136.889
118.038
108.588
107.176
111.584
118.519
126.041
133.31
139.248
143.404
145.636
145.892
144.457
141.6
137.557
132.991
128.738
125.285
122.825
121.283
120.374
119.902
119.752
119.672
119.338
118.55
117.203
115.298
112.944
110.204
107.098
103.662
99.936
95.958
91.767
87.388
82.835
78.121
73.256
68.25
63.112
57.842
52.438
46.892
41.187
35.311
29.263
23.043
16.661
10.123
3.432
-3.408
-10.391
-17.509
-24.748
-32.095
-39.538
-47.062
-54.647
-62.273
-69.912
-77.536
-85.117
-92.625
-100.028
-107.294
-114.388
-121.271
-127.909
-134.268
-140.313
-146.018
-151.351
-156.277
-160.76
-164.761
-168.245
-171.193
-173.586
-175.406
-176.649
-177.318
-177.433
-177.035
-176.152
-174.793
-172.962
-170.643
-167.83
-164.52
-160.709
-156.393
-151.568
-146.223
-140.359
-133.995
-127.124
-119.727
-111.754
-103.119
-93.781
-83.748
-73.047
-61.743
-49.915
-37.644
-25.05
-12.28
0.532
13.261
25.802
38.09
50.019
61.46
72.259
82.217
91.192
99.105
105.896
111.542
116.054
119.466
121.867
123.412
124.222
124.393
124.003
123.087
121.718
119.996
118.03
115.958
113.886
111.881
110.007
108.314
106.817
105.513
104.351
103.227
102.072
100.849
99.536
98.141
96.661
95.073
93.367
91.53
89.551
87.435
85.177
82.772
80.233
77.585
74.873
72.167
69.517
66.952
64.496
62.16
59.95
57.879
55.947
54.142
52.461
50.899
49.457
48.138
46.942
45.859
44.88
43.989
43.175
42.429
41.742
41.108
40.521
39.977
39.475
39.017
38.603
38.232
37.9
37.602
37.334
37.093
36.873
36.67
36.478
36.293
36.114
35.938
35.764
35.589
35.411
35.228
35.039
34.841
34.632
34.406
34.161
33.893
33.596
33.268
32.903
32.496
32.041
31.534
30.969
30.339
29.639
28.862
28.001
27.052
26.009
24.867
23.623
22.274
20.817
19.253
17.58
15.798
13.908
11.911
9.808
7.602
5.295
2.893
0.398
-2.182
-4.84
-7.563
-10.341
-13.159
-16.004
-18.863
-21.718
-24.553
-27.354
-30.107
-32.801
-35.42
-37.951
-40.377
-42.683
-44.854
-46.877
-48.739
-50.427
-51.932
-53.244
-54.362
-55.285
-56.012
-56.538
-56.856
-56.949
-56.809
-56.435
-55.832
-55.003
-53.963
-52.726
-51.322
-49.794
-48.181
-46.525
-44.859
-43.211
-41.614
-40.101
-38.716
-37.512
-36.542
-35.828
-35.374
-35.183
-35.238
-35.533
-36.05
-36.714
-37.433
-38.114
-38.668
-39.031
-39.168
-39.005
-38.431
-37.404
-35.959
-34.276
-32.71
-31.586
-31.148
-31.651
-33.372
-36.464
-40.939
-46.447
-52.192
-57.39
-61.363
-63.578
-63.829
-62.116
-58.652
-54.348
-50.733
-50.399
-57.14
-73.876
-101.878
-139.248
-180.66
-221.546
-261.284
-304.469
-359.517
-434.62
-530.377
-637.186
-738.332
-810.401
-832.634
-794.495
-695.384
-548.852
-378.46
-209.608
-65.223
38.927
97.037
111.63
88.834
39.982
-20.983
-80.799
-124.69
-146.028
-147.523
-136.905
-127.54
-126.374
-132.573
-142.571
-149.555
-151.215
-149.523
-146.434
-144.736
-145.646
-148.809
-153.925
-160.208
-166.545
-172.215
-176.845
-180.28
-182.597
-183.795
-183.829
-182.883
-181.365
-179.689
-178.161
-176.931
-176.027
-175.496
-175.413
-175.814
-176.69
-178.004
-179.712
-181.796
-184.257
-187.089
-190.275
-193.775
-197.537
-201.505
-205.619
-209.838
-214.135
-218.491
-222.893
-227.334
-231.808
-236.32
-240.885
-245.512
-250.206
-254.967
-259.794
-264.688
-269.657
-274.708
-279.846
-285.07
-290.372
-295.745
-301.18
-306.663
-312.179
-317.708
-323.227
-328.712
-334.144
-339.502
-344.765
-349.909
-354.91
-359.743
-364.385
-368.812
-372.996
-376.913
-380.536
-383.839
-386.798
-389.39
-391.593
-393.384
-394.745
-395.658
-396.106
-396.076
-395.556
-394.537
-393.01
-390.971
-388.418
-385.35
-381.772
-377.688
-373.106
-368.04
-362.501
-356.508
-350.079
-343.235
-336
-328.399
-320.46
-312.213
-303.687
-294.916
-285.932
-276.772
-267.47
-258.062
-248.586
-239.077
-229.571
-220.104
-210.711
-201.425
-192.278
-183.302
-174.524
-165.973
-157.674
-149.651
-141.924
-134.512
-127.432
-120.697
-114.317
-108.303
-102.659
-97.388
-92.492
-87.968
-83.813
-80.02
-76.582
-73.487
-70.723
-68.277
-66.132
-64.272
-62.678
-61.331
-60.211
-59.297
-58.567
-58.001
-57.577
-57.274
-57.072
-56.95
-56.889
-56.869
-56.874
-56.885
-56.889
-56.869
-56.814
-56.711
-56.55
-56.323
-56.023
-55.643
-55.179
-54.629
-53.991
-53.263
-52.448
-51.547
-50.563
-49.501
-48.366
-47.164
-45.901
-44.586
-43.225
-41.827
-40.401
-38.954
-37.494
-36.031
-34.571
-33.123
-31.692
-30.287
-28.913
-27.575
-26.279
-25.027
-23.825
-22.673
-21.575
-20.531
-19.542
-18.607
-17.726
-16.898
-16.119
-15.388
-14.701
-14.055
-13.446
-12.869
-12.32
-11.793
-11.284
-10.787
-10.298
-9.81
-9.32
-8.821
-8.31
-7.783
-7.236
-6.665
-6.069
-5.445
-4.791
-4.109
-3.396
-2.654
-1.882
-1.083
-0.257
0.592
1.464
2.354
3.262
4.184
5.115
6.053
6.995
7.936
8.875
9.807
10.729
11.637
12.529
13.404
14.259
15.092
15.902
16.689
17.452
18.194
18.915
19.618
20.307
20.985
21.661
22.344
23.043
23.765
24.52
25.32
26.175
27.095
28.088
29.158
30.315
31.567
32.924
34.396
35.99
37.713
39.576
41.586
43.752
46.078
48.562
51.202
54
56.963
60.105
63.434
66.949
70.651
74.538
78.6
82.823
87.177
91.616
96.095
100.576
105.029
109.433
113.754
117.952
121.985
125.812
129.406
132.75
135.819
138.6
141.115
143.413
145.585
147.74
149.956
152.306
154.872
157.739
161.008
164.777
169.089
173.985
179.537
185.764
192.629
199.977
207.412
214.49
220.85
226.099
229.794
231.692
231.736
230.153
227.81
225.6
224.028
223.806
225.676
229.859
236.292
243.45
247.762
246.121
235.997
217.421
193.397
165.629
135.863
101.072
53.524
-11.383
-99.714
-209.621
-326.979
-436.792
-514.745
-537.421
-496.514
-389.091
-230.285
-50.928
121.847
260.123
348.936
393.732
404.71
397.148
383.851
366.915
347.803
329.709
315.761
310.879
316.106
325.614
333.555
336.335
333.832
330.466
329.372
330.696
333.084
334.177
333.053
330.342
326.862
323.397
320.375
318.029
316.719
316.67
317.867
320.153
323.281
327.069
331.409
336.146
341.099
346.078
350.888
355.397
359.526
363.209
366.398
369.065
371.178
372.73
373.749
374.268
374.325
373.957
373.184
372.042
370.579
368.854
366.936
364.88
362.712
360.457
358.127
355.73
353.273
350.754
348.154
345.461
342.667
339.771
336.779
333.693
330.512
327.233
323.857
320.39
316.842
313.226
309.554
305.842
302.108
298.377
294.674
291.023
287.447
283.969
280.61
277.393
274.344
271.484
268.834
266.418
264.259
262.379
260.802
259.547
258.635
258.083
257.91
258.129
258.754
259.796
261.264
263.165
265.504
268.283
271.502
275.16
279.251
283.768
288.703
294.044
299.776
305.885
312.35
319.153
326.27
333.679
341.352
349.265
357.387
365.69
374.143
382.716
391.376
400.091
408.829
417.557
426.244
434.857
443.366
451.741
459.954
467.977
475.786
483.357
490.667
497.696
504.426
510.839
516.921
522.66
528.044
533.065
537.717
541.993
545.893
549.414
552.559
555.33
557.731
559.768
561.451
562.786
563.785
564.458
564.819
564.88
564.656
564.16
563.409
562.417
561.198
559.769
558.144
556.337
554.363
552.233
549.962
547.561
545.042
542.415
539.691
536.879
533.988
531.025
527.998
524.913
521.776
518.59
515.361
512.091
508.783
505.44
502.062
498.651
495.207
491.729
488.219
484.674
481.094
477.477
473.822
470.127
466.392
462.614
458.794
454.931
451.025
447.076
443.085
439.053
434.981
430.87
426.723
422.542
418.33
414.089
409.823
405.535
401.23
396.911
392.583
388.25
383.916
379.587
375.266
370.959
366.669
362.402
358.161
353.952
349.779
345.645
341.555
337.511
333.518
329.576
325.688
321.853
318.073
314.347
310.674
307.053
303.48
299.955
296.473
293.03
289.622
286.245
282.891
279.555
276.23
272.909
269.584
266.248
262.893
259.512
256.097
252.64
249.134
245.571
241.943
238.242
234.463
230.597
226.639
222.583
218.424
214.159
209.784
205.299
200.702
195.995
191.178
186.254
181.225
176.097
170.875
165.564
160.171
154.706
149.18
143.607
138.001
132.376
126.746
121.128
115.539
109.993
104.504
99.082
93.738
88.486
83.34
78.313
73.416
68.66
64.055
59.612
55.339
51.241
47.318
43.564
39.976
36.555
33.309
30.246
27.376
24.697
22.208
19.905
17.779
15.813
13.981
12.236
10.54
8.859
7.162
5.424
3.61
1.678
-0.417
-2.725
-5.297
-8.173
-11.376
-14.921
-18.798
-22.982
-27.447
-32.127
-36.95
-41.834
-46.674
-51.384
-55.904
-60.145
-63.98
-67.315
-70.101
-72.442
-74.666
-77.136
-80.157
-84.055
-89.159
-95.746
-103.933
-113.343
-122.977
-131.72
-138.653
-142.941
-143.917
-141.123
-134.313
-125.294
-117.961
-115.785
-122.29
-137.801
-158.925
-185.803
-219.372
-262.888
-324.879
-406.825
-506.968
-623.021
-743.579
-858.96
-958.563
-1024.348
-1043.16
-1004.743
-905.094
-755.802
-577.069
-395.813
-239.41
-125.148
-60.008
-37.736
-46.286
-76.659
-119.567
-170.562
-224.085
-268.018
-296.217
-306.077
-301.01
-293.303
-289.364
-291.186
-297.812
-303.178
-305.47
-305.852
-305.332
-306.704
-311.298
-318.482
-327.709
-337.855
-347.472
-356.004
-363.293
-369.161
-373.628
-376.749
-378.529
-379.238
-379.416
-379.438
-379.554
-379.95
-380.655
-381.722
-383.244
-385.239
-387.676
-390.526
-393.744
-397.302
-401.207
-405.444
-409.985
-414.792
-419.801
-424.949
-430.172
-435.424
-440.679
-445.923
-451.144
-456.339
-461.509
-466.66
-471.81
-476.976
-482.168
-487.395
-492.67
-498.005
-503.411
-508.9
-514.474
-520.123
-525.825
-531.541
-537.228
-542.86
-548.411
-553.867
-559.226
-564.482
-569.633
-574.684
-579.62
-584.433
-589.12
-593.665
-598.063
-602.336
-606.514
-610.654
-614.829
-619.055
-623.331
-627.641
-631.924
-636.125
-640.176
-643.982
-647.478
-650.619
-653.344
-655.62
-657.391
-658.553
-658.989
-658.548
-657.068
-654.461
-650.675
-645.669
-639.463
-632.092
-623.605
-614.101
-603.645
-592.258
-579.986
-566.867
-552.971
-538.448
-523.472
-508.251
-493.007
-477.898
-463.056
-448.604
-434.62
-421.158
-408.265
-395.949
-384.251
-373.267
-363.074
-353.732
-345.264
-337.617
-330.705
-324.409
-318.609
-313.21
-308.135
-303.32
-298.721
-294.314
-290.078
-286.008
-282.069
-278.181
-274.274
-270.29
-266.202
-262.026
-257.806
-253.602
-249.476
-245.477
-241.642
-237.994
-234.542
-231.279
-228.194
-225.266
-222.493
-219.89
-217.475
-215.259
-213.238
-211.393
-209.69
-208.088
-206.546
-205.025
-203.492
-201.926
-200.311
-198.643
-196.921
-195.151
-193.336
-191.47
-189.55
-187.569
-185.527
-183.427
-181.273
-179.074
-176.841
-174.585
-172.315
-170.04
-167.766
-165.499
-163.241
-160.991
-158.75
-156.521
-154.307
-152.111
-149.937
-147.79
-145.675
-143.595
-141.553
-139.554
-137.598
-135.689
-133.826
-132.012
-130.247
-128.535
-126.875
-125.27
-123.72
-122.225
-120.787
-119.407
-118.086
-116.823
-115.62
-114.478
-113.396
-112.376
-111.419
-110.525
-109.694
-108.929
-108.23
-107.598
-107.035
-106.542
-106.122
-105.775
-105.503
-105.308
-105.191
-105.154
-105.197
-105.323
-105.533
-105.828
-106.209
-106.677
-107.232
-107.874
-108.603
-109.418
-110.317
-111.298
-112.356
-113.488
-114.69
-115.954
-117.277
-118.65
-120.067
-121.52
-123.001
-124.5
-126.009
-127.519
-129.016
-130.489
-131.924
-133.305
-134.619
-135.85
-136.983
-138.001
-138.893
-139.644
-140.247
-140.69
-140.962
-141.055
-140.957
-140.659
-140.151
-139.427
-138.478
-137.303
-135.9
-134.271
-132.426
-130.371
-128.115
-125.661
-123.005
-120.144
-117.084
-113.83
-110.396
-106.802
-103.07
-99.235
-95.345
-91.444
-87.578
-83.791
-80.108
-76.557
-73.168
-69.969
-67.014
-64.355
-62.02
-60.025
-58.368
-57.026
-55.975
-55.177
-54.556
-54.027
-53.493
-52.866
-52.101
-51.161
-50.034
-48.689
-46.999
-44.896
-42.458
-39.825
-37.286
-35.163
-33.65
-33.055
-33.93
-36.594
-41.039
-47.092
-54.06
-61.017
-67.248
-71.789
-73.298
-71.904
-69.262
-66.809
-67.071
-70.756
-75.132
-79.638
-84.955
-93.956
-114.3
-153.255
-216.507
-307.04
-422.856
-554.923
-685.794
-794.446
-856.531
-852.761
-778.993
-641.042
-459.182
-262.959
-77.313
75.402
181.96
240.902
254.646
230.47
180.697
118
56.318
9.868
-16.377
-24.592
-21.772
-20.028
-24.484
-33.887
-44.778
-50.237
-47.919
-40.073
-29.256
-19.237
-12.198
-8.02
-6.477
-7.156
-9.333
-12.476
-16.01
-19.059
-21.051
-21.832
-21.321
-19.647
-17.099
-13.921
-10.459
-7.159
-4.283
-1.951
-0.224
0.944
1.581
1.674
1.264
0.413
-0.842
-2.467
-4.452
-6.799
-9.478
-12.439
-15.625
-18.984
-22.491
-26.132
-29.898
-33.784
-37.784
-41.893
-46.122
-50.476
-54.951
-59.545
-64.245
-69.044
-73.943
-78.941
-84.036
-89.224
-94.494
-99.83
-105.218
-110.637
-116.064
-121.475
-126.84
-132.132
-137.325
-142.395
-147.314
-152.058
-156.598
-160.908
-164.961
-168.73
-172.189
-175.309
-178.065
-180.433
-182.39
-183.914
-184.986
-185.589
-185.705
-185.322
-184.429
-183.015
-181.074
-178.6
-175.591
-172.049
-167.975
-163.377
-158.262
-152.642
-146.531
-139.944
-132.903
-125.426
-117.538
-109.264
-100.63
-91.665
-82.399
-72.864
-63.092
-53.118
-42.974
-32.696
-22.321
-11.883
-1.416
9.042
19.46
29.803
40.039
50.137
60.067
69.802
79.313
88.578
97.573
106.277
114.672
122.742
130.474
137.856
144.88
151.538
157.827
163.743
169.288
174.464
179.273
183.723
187.822
191.577
195.002
198.108
200.91
203.423
205.663
207.647
209.394
210.922
212.25
213.398
214.386
215.234
215.962
216.589
217.134
217.616
218.053
218.462
218.859
219.259
219.676
220.123
220.612
221.153
221.756
222.429
223.179
224.013
224.935
225.95
227.058
228.262
229.562
230.956
232.444
234.022
235.685
237.43
239.249
241.137
243.085
245.085
247.127
249.201
251.297
253.404
255.51
257.603
259.674
261.711
263.703
265.639
267.509
269.302
271.01
272.623
274.13
275.523
276.794
277.935
278.939
279.798
280.508
281.063
281.459
281.693
281.76
281.659
281.388
280.948
280.338
279.56
278.616
277.51
276.249
274.838
273.285
271.597
269.786
267.859
265.827
263.7
261.49
259.207
256.863
254.47
252.041
249.591
247.137
244.694
242.278
239.907
237.596
235.361
233.217
231.174
229.242
227.43
225.749
224.208
222.819
221.589
220.526
219.639
218.933
218.412
218.077
217.924
217.945
218.137
218.496
219.023
219.728
220.621
221.702
222.97
224.42
226.039
227.813
229.714
231.698
233.727
235.758
237.752
239.687
241.532
243.256
244.828
246.196
247.307
248.142
248.697
248.977
249.012
248.823
248.442
247.959
247.481
247.129
247.017
247.223
247.798
248.805
250.376
252.614
255.517
258.919
262.478
265.846
268.793
271.094
272.337
272.194
270.637
267.999
265.175
263.078
262.301
263.524
267.541
274.939
284.911
294.901
301.764
302.217
295.634
285.016
271.508
254.918
233.4
198.31
143.01
64.952
-39.46
-163.015
-290.157
-404.423
-480.233
-496.908
-449.175
-339.17
-184.371
-10.791
160.468
309.58
423.914
498.608
533.686
533.808
505.044
458.117
402.264
347.163
305.03
278.395
266.601
265.123
262.845
256.222
245.83
233.83
226.67
226.261
230.636
237.752
244.087
247.569
248.358
246.667
242.882
237.643
231.366
224.55
218.026
212.396
207.846
204.427
202.014
200.322
199.113
198.116
196.936
195.324
193.177
190.44
187.16
183.393
179.146
174.454
169.378
163.946
158.179
152.103
145.724
139.074
132.21
125.171
117.99
110.692
103.283
95.77
88.156
80.439
72.614
64.677
56.63
48.48
40.236
31.906
23.494
15.003
6.435
-2.206
-10.911
-19.666
-28.455
-37.258
-46.053
-54.812
-63.506
-72.105
-80.58
-88.903
-97.048
-104.984
-112.681
-120.11
-127.24
-134.042
-140.485
-146.54
-152.175
-157.364
-162.081
-166.301
-170.002
-173.164
-175.769
-177.801
-179.247
-180.096
-180.341
-179.975
-178.996
-177.404
-175.203
-172.398
-169
-165.02
-160.474
-155.382
-149.764
-143.645
-137.053
-130.016
-122.567
-114.739
-106.567
-98.09
-89.345
-80.371
-71.21
-61.901
-52.487
-43.009
-33.508
-24.024
-14.596
-5.263
3.939
12.973
21.808
30.41
38.75
46.801
54.538
61.937
68.98
75.647
81.923
87.797
93.26
98.303
102.923
107.119
110.892
114.245
117.185
119.718
121.857
123.611
124.995
126.023
126.713
127.081
127.146
126.928
126.447
125.722
124.774
123.625
122.294
120.802
119.169
117.413
115.555
113.612
111.603
109.543
107.45
105.339
103.223
101.117
99.031
96.978
94.967
93.007
91.107
89.272
87.51
85.827
84.225
82.711
81.285
79.952
78.712
77.567
76.517
75.563
74.704
73.938
73.266
72.686
72.197
71.795
71.48
71.249
71.099
71.027
71.029
71.102
71.241
71.442
71.701
72.013
72.373
72.777
73.219
73.693
74.194
74.715
75.248
75.787
76.322
76.848
77.354
77.833
78.278
78.678
79.026
79.314
79.533
79.675
79.732
79.696
79.558
79.312
78.951
78.469
77.86
77.119
76.244
75.232
74.081
72.792
71.363
69.796
68.092
66.257
64.293
62.206
60.005
57.696
55.294
52.813
50.267
47.672
45.043
42.4
39.76
37.14
34.557
32.022
29.55
27.159
24.865
22.686
20.638
18.735
16.991
15.424
14.046
12.868
11.897
11.131
10.574
10.234
10.124
10.26
10.653
11.304
12.211
13.373
14.777
16.406
18.227
20.186
22.237
24.34
26.46
28.568
30.629
32.594
34.417
36.05
37.453
38.598
39.473
40.072
40.414
40.537
40.492
40.38
40.302
40.355
40.65
41.272
42.292
43.815
45.95
48.739
52.169
56.106
60.258
64.33
68.024
70.982
72.845
73.324
72.24
69.792
66.56
63.203
60.409
58.727
58.47
59.935
63.313
68.004
72.653
74.709
70.593
57.421
33.645
0.669
-38.613
-81.62
-126.948
-178.797
-242.122
-320.336
-416.538
-523.43
-627.864
-715.054
-762.962
-756.898
-692.652
-571.869
-412.357
-237.872
-69.605
70.791
172.139
232.707
255.182
248.19
220.808
181.56
138.397
98.913
69.231
50.694
41.552
35.95
27.949
16.533
3.555
-6.628
-10.792
-9.394
-4.826
-0.255
2.411
2.695
0.684
-3.221
-8.703
-15.348
-22.348
-28.799
-34.136
-38.033
-40.386
-41.287
-40.872
-39.373
-37.211
-34.924
-32.868
-31.245
-30.156
-29.578
-29.517
-30.006
-31.021
-32.492
-34.375
-36.64
-39.277
-42.31
-45.723
-49.468
-53.489
-57.708
-62.077
-66.579
-71.196
-75.923
-80.759
-85.699
-90.754
-95.944
-101.281
-106.769
-112.407
-118.184
-124.1
-130.158
-136.361
-142.71
-149.2
-155.819
-162.55
-169.378
-176.28
-183.231
-190.201
-197.158
-204.069
-210.906
-217.639
-224.239
-230.673
-236.912
-242.924
-248.68
-254.149
-259.302
-264.108
-268.54
-272.57
-276.175
-279.331
-282.017
-284.213
-285.905
-287.076
-287.716
-287.816
-287.37
-286.372
-284.824
-282.727
-280.085
-276.908
-273.205
-268.991
-264.281
-259.095
-253.455
-247.385
-240.911
-234.06
-226.864
-219.353
-211.56
-203.519
-195.264
-186.83
-178.252
-169.566
-160.807
-152.01
-143.211
-134.442
-125.736
-117.125
-108.639
-100.307
-92.155
-84.209
-76.491
-69.023
-61.825
-54.913
-48.302
-42.004
-36.03
-30.387
-25.082
-20.117
-15.494
-11.211
-7.266
-3.652
-0.364
2.607
5.271
7.639
9.724
11.539
13.098
14.414
15.505
16.385
17.07
17.576
17.919
18.114
18.178
18.125
17.971
17.729
17.414
17.038
16.614
16.153
15.667
15.166
14.659
14.154
13.659
13.18
12.724
12.295
11.897
11.533
11.205
10.915
10.665
10.455
10.284
10.154
10.063
10.01
9.996
10.019
10.077
10.171
10.298
10.457
10.648
10.869
11.119
11.397
11.702
12.034
12.391
12.773
13.179
13.607
14.059
14.531
15.024
15.536
16.066
16.613
17.176
17.754
18.346
18.951
19.567
20.193
20.826
21.466
22.109
22.753
23.393
24.026
24.648
25.256
25.845
26.41
26.947
27.452
27.919
28.345
28.725
29.053
29.326
29.539
29.689
29.772
29.786
29.729
29.599
29.396
29.121
28.774
28.358
27.874
27.325
26.714
26.046
25.325
24.557
23.748
22.907
22.043
21.169
20.299
19.443
18.617
17.834
17.11
16.458
15.89
15.414
15.04
14.779
14.643
14.643
14.789
15.088
15.551
16.187
17.001
17.998
19.177
20.532
22.06
23.759
25.636
27.699
29.957
32.409
35.054
37.889
40.903
44.078
47.384
50.77
54.191
57.604
60.966
64.244
67.399
70.39
73.172
75.695
77.912
79.786
81.299
82.447
83.247
83.731
83.944
83.97
83.914
83.897
84.039
84.434
85.144
86.238
87.834
90.016
92.798
96.082
99.601
103.065
106.245
108.883
110.614
111.108
110.199
108.059
105.286
102.511
100.357
99.505
100.61
104.418
110.519
116.607
120.08
118.168
109.962
98.602
86.109
72.186
54.412
23.665
-28.838
-106.709
-211.252
-334.861
-462.772
-579.428
-666.062
-705.275
-687.872
-612.195
-484.885
-323.606
-150.211
14.533
150.797
246.913
300.115
312.013
289.497
243.44
184.755
126.021
80.89
55.081
48.29
54.811
62.433
65.238
63.197
58.422
57.196
61.668
69.454
78.414
85.518
88.956
89.108
86.548
81.951
76.393
70.926
66.106
62.306
59.816
58.573
58.5
59.514
61.214
63.094
64.834
66.211
67.106
67.537
67.481
66.889
65.792
64.237
62.259
59.891
57.139
53.99
50.452
46.558
42.353
37.895
33.245
28.442
23.515
18.483
13.361
8.159
2.886
-2.457
-7.88
-13.384
-18.969
-24.632
-30.366
-36.169
-42.048
-48.005
-54.047
-60.171
-66.371
-72.637
-78.958
-85.322
-91.712
-98.108
-104.487
-110.827
-117.105
-123.3
-129.392
-135.354
-141.163
-146.792
-152.215
-157.407
-162.342
-166.991
-171.328
-175.327
-178.964
-182.215
-185.058
-187.472
-189.438
-190.938
-191.957
-192.479
-192.494
-191.992
-190.964
-189.405
-187.312
-184.686
-181.528
-177.844
-173.643
-168.934
-163.732
-158.052
-151.914
-145.339
-138.351
-130.975
-123.241
-115.178
-106.82
-98.199
-89.35
-80.311
-71.119
-61.81
-52.423
-42.994
-33.563
-24.164
-14.834
-5.609
3.479
12.396
21.111
29.596
37.821
45.761
53.393
60.696
67.65
74.238
80.447
86.264
91.68
96.689
101.286
105.47
109.243
112.608
115.571
118.141
120.328
122.147
123.61
124.735
125.539
126.041
126.261
126.22
125.938
125.438
124.742
123.872
122.85
121.698
120.437
119.089
117.674
116.212
114.72
113.218
111.722
110.247
108.808
107.418
106.089
104.832
103.656
102.567
101.573
100.677
99.882
99.189
98.598
98.107
97.713
97.413
97.2
97.069
97.012
97.024
97.095
97.216
97.38
97.576
97.796
98.03
98.269
98.504
98.728
98.93
99.105
99.245
99.344
99.395
99.393
99.334
99.213
99.028
98.775
98.453
98.061
97.6
97.07
96.474
95.813
95.093
94.317
93.489
92.616
91.701
90.751
89.772
88.769
87.75
86.72
85.686
84.653
83.626
82.612
81.614
80.636
79.682
78.753
77.85
76.975
76.128
75.31
74.518
73.751
73.009
72.288
71.586
70.899
70.222
69.551
68.88
68.203
67.516
66.811
66.082
65.325
64.533
63.703
62.831
61.911
60.941
59.917
58.837
57.702
56.51
55.262
53.96
52.608
51.213
49.783
48.328
46.857
45.382
43.914
42.466
41.052
39.682
38.366
37.112
35.934
34.844
33.855
32.981
32.234
31.629
31.18
30.899
30.796
30.877
31.141
31.59
32.227
33.055
34.086
35.325
36.774
38.432
40.293
42.341
44.554
46.895
49.316
51.776
54.229
56.637
58.972
61.199
63.291
65.231
66.977
68.495
69.757
70.736
71.429
71.878
72.112
72.19
72.198
72.181
72.221
72.41
72.801
73.453
74.382
75.541
76.949
78.713
80.846
83.278
85.815
88.036
89.588
90.241
89.634
87.287
82.877
76.342
67.989
58.629
49.265
40.74
33.876
29.785
28.409
28.025
26.923
22.631
14.182
4.631
-4.651
-15.006
-29.715
-57.989
-107.736
-180.828
-277.336
-390.819
-509.902
-622.555
-711.213
-756.866
-745.289
-670.298
-538.802
-370.491
-193.113
-32.411
92.856
172.592
210.517
214.27
191.892
156.297
114.622
74.303
46.38
32.466
32.266
41.958
50.06
51.701
46.404
35.751
26.146
20.357
17.397
15.825
13.247
8.904
3.663
-1.824
-7.03
-11.767
-16.065
-19.587
-22.093
-23.617
-24.268
-24.241
-23.683
-22.621
-21.102
-19.402
-17.814
-16.522
-15.667
-15.273
-15.333
-15.9
-17.025
-18.691
-20.851
-23.456
-26.447
-29.808
-33.538
-37.603
-41.963
-46.557
-51.314
-56.191
-61.164
-66.216
-71.339
-76.528
-81.779
-87.103
-92.521
-98.048
-103.694
-109.459
-115.34
-121.333
-127.441
-133.665
-140.005
-146.455
-153.004
-159.638
-166.343
-173.099
-179.886
-186.675
-193.439
-200.147
-206.774
-213.293
-219.676
-225.895
-231.921
-237.726
-243.282
-248.561
-253.534
-258.172
-262.447
-266.334
-269.807
-272.843
-275.421
-277.521
-279.126
-280.221
-280.793
-280.832
-280.332
-279.288
-277.697
-275.561
-272.884
-269.673
-265.938
-261.691
-256.947
-251.724
-246.042
-239.923
-233.392
-226.476
-219.203
-211.602
-203.705
-195.544
-187.153
-178.566
-169.818
-160.945
-151.981
-142.963
-133.925
-124.901
-115.926
-107.031
-98.249
-89.608
-81.138
-72.864
-64.812
-57.004
-49.46
-42.2
-35.239
-28.591
-22.269
-16.281
-10.634
-5.334
-0.384
4.216
8.466
12.37
15.932
19.158
22.056
24.636
26.907
28.883
30.575
31.997
33.164
34.089
34.789
35.278
35.573
35.691
35.646
35.455
35.134
34.699
34.165
33.546
32.858
32.113
31.324
30.505
29.666
28.819
27.973
27.139
26.325
25.54
24.79
24.084
23.427
22.825
22.281
21.802
21.389
21.047
20.778
20.584
20.467
20.429
20.47
20.593
20.796
21.081
21.446
21.892
22.416
23.017
23.693
24.442
25.261
26.149
27.1
28.113
29.183
30.305
31.477
32.691
33.943
35.226
36.535
37.862
39.2
40.543
41.882
43.211
44.522
45.807
47.058
48.266
49.423
50.52
51.548
52.499
53.363
54.132
54.798
55.353
55.789
56.1
56.279
56.321
56.221
55.973
55.574
55.021
54.312
53.445
52.421
51.241
49.907
48.424
46.797
45.032
43.136
41.119
38.991
36.76
34.44
32.043
29.581
27.07
24.523
21.959
19.396
16.855
14.354
11.915
9.558
7.304
5.174
3.185
1.354
-0.305
-1.777
-3.049
-4.106
-4.933
-5.52
-5.857
-5.933
-5.742
-5.279
-4.542
-3.536
-2.269
-0.748
1.024
3.042
5.312
7.835
10.602
13.603
16.824
20.245
23.841
27.577
31.402
35.272
39.146
42.982
46.751
50.419
53.945
57.293
60.409
63.24
65.758
67.95
69.812
71.363
72.621
73.608
74.397
75.068
75.704
76.408
77.247
78.262
79.516
81.095
83.068
85.462
88.138
90.77
93.032
94.649
95.365
94.906
92.975
89.427
84.58
79.22
74.233
70.318
68.082
68.164
71.144
77.413
85.511
92.177
94.555
89.795
78.286
63.757
46.195
24.56
-5.14
-52.45
-119.609
-205.349
-307.397
-414.885
-519.635
-612.796
-678.093
-701.332
-668.961
-573.599
-422.797
-235.906
-40.796
134.204
266.867
345.936
372.981
355.845
309.464
250.593
191.761
145.541
116.202
100.96
95.463
90.214
80.82
68.803
56.832
50.625
52.265
59.351
68.777
76.859
81.531
82.664
80.566
75.869
69.321
61.85
54.622
48.441
43.774
40.803
39.398
39.419
40.632
42.609
44.833
46.893
48.539
49.676
50.318
50.469
50.118
49.278
47.99
46.304
44.249
41.838
39.064
35.928
32.462
28.714
24.74
20.599
16.327
11.938
7.446
2.858
-1.825
-6.599
-11.469
-16.451
-21.552
-26.773
-32.115
-37.574
-43.15
-48.849
-54.677
-60.631
-66.707
-72.893
-79.174
-85.534
-91.953
-98.409
-104.875
-111.32
-117.718
-124.041
-130.262
-136.354
-142.287
-148.031
-153.556
-158.835
-163.838
-168.535
-172.899
-176.9
-180.513
-183.714
-186.478
-188.785
-190.614
-191.948
-192.772
-193.073
-192.84
-192.066
-190.744
-188.874
-186.455
-183.491
-179.989
-175.958
-171.411
-166.364
-160.834
-154.843
-148.415
-141.575
-134.351
-126.773
-118.873
-110.681
-102.234
-93.565
-84.71
-75.705
-66.587
-57.392
-48.157
-38.918
-29.709
-20.566
-11.522
-2.608
6.144
14.705
23.049
31.149
38.982
46.527
53.764
60.677
67.252
73.477
79.343
84.844
89.975
94.734
99.123
103.144
106.802
110.102
113.054
115.668
117.954
119.926
121.596
122.98
124.093
124.95
125.569
125.966
126.158
126.163
125.998
125.68
125.226
124.654
123.978
123.217
122.385
121.497
120.567
119.608
118.633
117.653
116.677
115.717
114.779
113.871
113.001
112.173
111.393
110.664
109.99
109.373
108.815
108.318
107.882
107.507
107.194
106.942
106.749
106.615
106.539
106.516
106.547
106.626
106.751
106.917
107.12
107.356
107.619
107.905
108.209
108.526
108.848
109.172
109.491
109.799
110.091
110.357
110.593
110.792
110.946
111.049
111.094
111.075
110.984
110.816
110.564
110.222
109.783
109.241
108.59
107.824
106.939
105.93
104.794
103.528
102.132
100.604
98.946
97.159
95.244
93.205
91.044
88.769
86.384
83.896
81.312
78.643
75.9
73.099
70.254
67.379
64.491
61.607
58.745
55.922
53.153
50.448
47.822
45.291
42.868
40.572
38.417
36.419
34.59
32.948
31.504
30.27
29.248
28.438
27.841
27.46
27.303
27.387
27.721
28.31
29.155
30.255
31.596
33.161
34.916
36.809
38.793
40.829
42.877
44.912
46.903
48.811
50.603
52.236
53.663
54.851
55.779
56.448
56.889
57.155
57.307
57.438
57.641
58.019
58.669
59.659
61.043
62.848
65.127
68.009
71.552
75.734
80.437
85.355
90.135
94.516
98.095
100.249
100.632
99.109
95.695
91.16
86.461
82.25
79.69
79.521
80.802
82.28
82.581
81.383
81.116
84.006
89.499
91.075
78.232
42.587
-21.167
-108.917
-211.536
-324.265
-439.456
-550.083
-648.408
-714.325
-728.906
-681.764
-568.523
-404.974
-219.898
-39.872
107.346
206.872
262.022
280.382
275.497
259.801
235.858
206.124
174.62
144.284
120.319
104.917
93.749
83.247
71.717
59.543
51.038
48.91
52.56
59.983
67.97
74.139
77.644
78.409
76.713
72.865
67.384
60.939
54.241
48.147
43.241
39.698
37.59
36.813
37.107
38.248
39.903
41.593
43.021
44.039
44.555
44.61
44.225
43.362
42.042
40.325
38.241
35.823
33.086
30.005
26.594
22.891
18.942
14.814
10.547
6.156
1.653
-2.958
-7.673
-12.484
-17.4
-22.439
-27.609
-32.916
-38.357
-43.927
-49.626
-55.46
-61.43
-67.538
-73.78
-80.144
-86.616
-93.181
-99.817
-106.502
-113.209
-119.905
-126.563
-133.154
-139.65
-146.023
-152.242
-158.277
-164.099
-169.678
-174.985
-179.989
-184.661
-188.972
-192.896
-196.407
-199.483
-202.1
-204.239
-205.882
-207.013
-207.621
-207.694
-207.224
-206.205
-204.636
-202.518
-199.854
-196.652
-192.921
-188.677
-183.934
-178.714
-173.038
-166.931
-160.42
-153.533
-146.302
-138.758
-130.936
-122.87
-114.597
-106.152
-97.573
-88.899
-80.167
-71.415
-62.678
-53.995
-45.4
-36.928
-28.611
-20.48
-12.566
-4.897
2.503
9.607
16.396
22.85
28.952
34.688
40.048
45.022
49.605
53.793
57.585
60.982
63.989
66.609
68.852
70.726
72.241
73.412
74.25
74.772
74.994
74.932
74.604
74.03
73.226
72.213
71.01
69.636
68.11
66.452
64.679
62.81
60.864
58.857
56.807
54.728
52.635
50.543
48.463
46.409
44.389
42.414
40.493
38.633
36.842
35.124
33.486
31.931
30.463
29.086
27.801
26.61
25.515
24.516
23.614
22.81
22.102
21.491
20.975
20.555
20.228
19.994
19.851
19.797
19.83
19.95
20.154
20.44
20.807
21.253
21.776
22.376
23.05
23.798
24.617
25.506
26.463
27.488
28.577
29.731
30.945
32.219
33.55
34.936
36.373
37.859
39.39
40.961
42.57
44.211
45.88
47.573
49.283
51.005
52.735
54.466
56.192
57.907
59.603
61.276
62.918
64.52
66.077
67.58
69.024
70.4
71.701
72.92
74.051
75.086
76.019
76.844
77.554
78.144
78.608
78.942
79.143
79.206
79.128
78.909
78.547
78.041
77.394
76.607
75.682
74.622
73.431
72.117
70.684
69.141
67.493
65.752
63.928
62.035
60.088
58.099
56.085
54.062
52.046
50.053
48.098
46.193
44.35
42.582
40.904
39.332
37.881
36.563
35.39
34.375
33.531
32.865
32.383
32.083
31.963
32.029
32.289
32.76
33.453
34.373
35.52
36.892
38.479
40.269
42.231
44.324
46.504
48.736
50.991
53.25
55.482
57.65
59.707
61.597
63.275
64.701
65.847
66.706
67.293
67.639
67.804
67.857
67.873
67.94
68.144
68.564
69.287
70.379
71.941
74.149
77.094
80.744
84.922
89.212
93.155
96.407
98.545
99.01
97.487
94.002
89.038
83.789
79.517
77.102
77.379
81.152
88.677
99.408
111.763
122.846
129.505
128.83
117.733
93.283
52.882
-3.563
-72.574
-149.537
-229.213
-309.718
-394.827
-485.05
-575.683
-655.861
-703.813
-701.318
-641.168
-524.572
-368.994
-198.162
-32.778
106.533
208.477
270.747
295.88
293.241
271.526
236.633
193.467
145.401
98.448
59.796
33.876
21.307
17.634
17.285
16.906
16.37
18.72
25.588
36.466
49.311
60.384
67.692
71.164
71.018
68.152
63.495
57.438
50.764
44.621
39.577
35.879
33.592
32.405
32.017
32.227
32.683
32.943
32.769
32.037
30.706
28.869
26.569
23.815
20.654
17.141
13.313
9.192
4.798
0.135
-4.764
-9.839
-15.046
-20.348
-25.72
-31.152
-36.634
-42.158
-47.723
-53.334
-58.995
-64.703
-70.456
-76.246
-82.069
-87.927
-93.823
-99.761
-105.745
-111.773
-117.84
-123.937
-130.055
-136.178
-142.291
-148.371
-154.4
-160.358
-166.226
-171.986
-177.617
-183.097
-188.403
-193.515
-198.407
-203.057
-207.44
-211.532
-215.308
-218.748
-221.83
-224.535
-226.843
-228.738
-230.203
-231.224
-231.791
-231.891
-231.516
-230.66
-229.318
-227.489
-225.172
-222.371
-219.092
-215.344
-211.136
-206.483
-201.401
-195.91
-190.029
-183.783
-177.196
-170.297
-163.114
-155.678
-148.02
-140.174
-132.174
-124.055
-115.852
-107.599
-99.331
-91.083
-82.887
-74.776
-66.782
-58.934
-51.261
-43.79
-36.547
-29.556
-22.837
-16.412
-10.297
-4.508
0.942
6.043
10.787
15.168
19.183
22.832
26.117
29.041
31.612
33.838
35.73
37.301
38.565
39.538
40.238
40.682
40.891
40.885
40.684
40.309
39.782
39.124
38.355
37.498
36.571
35.596
34.591
33.577
32.569
31.587
30.646
29.762
28.948
28.219
27.585
27.058
26.647
26.359
26.202
26.18
26.297
26.556
26.956
27.499
28.182
29.001
29.954
31.035
32.238
33.557
34.983
36.51
38.127
39.827
41.6
43.436
45.327
47.261
49.229
51.221
53.228
55.239
57.246
59.238
61.208
63.145
65.042
66.89
68.683
70.412
72.071
73.655
75.158
76.576
77.905
79.142
80.284
81.331
82.281
83.135
83.893
84.557
85.129
85.611
86.008
86.322
86.559
86.722
86.817
86.849
86.823
86.744
86.62
86.454
86.254
86.025
85.772
85.501
85.218
84.929
84.637
84.349
84.068
83.8
83.547
83.314
83.103
82.918
82.76
82.63
82.531
82.461
82.42
82.408
82.421
82.457
82.514
82.588
82.674
82.768
82.866
82.963
83.053
83.132
83.194
83.234
83.245
83.225
83.167
83.067
82.921
82.725
82.475
82.169
81.805
81.381
80.896
80.348
79.737
79.065
78.334
77.546
76.702
75.809
74.87
73.896
72.895
71.878
70.854
69.834
68.83
67.856
66.922
66.037
65.208
64.446
63.761
63.165
62.669
62.282
62.013
61.872
61.868
62.01
62.301
62.738
63.319
64.044
64.92
65.961
67.171
68.553
70.106
71.828
73.707
75.728
77.859
80.055
82.269
84.464
86.609
88.682
90.65
92.471
94.102
95.496
96.622
97.459
97.973
98.145
97.999
97.581
96.982
96.311
95.637
95.025
94.564
94.344
94.47
95.042
96.099
97.68
99.901
102.813
106.373
110.396
114.443
118.037
120.834
122.453
122.388
120.343
116.307
110.646
104.341
98.332
93.256
89.869
89.034
91.34
95.742
99.474
99.441
92.464
78.922
62.405
42.742
18.609
-14.718
-67.42
-141.78
-236.05
-346.951
-462.63
-574.133
-672.28
-741.592
-769.234
-743.092
-657.264
-519.395
-346.801
-165.429
-0.925
128.062
210.485
249.027
251.335
225.339
183.925
134.436
85.046
48.364
27.396
22.509
29.354
35.286
35.159
29.19
19.528
12.815
11.27
12.678
15.141
16.218
14.722
11.027
5.563
-1.191
-8.482
-15.344
-21.223
-25.95
-29.412
-31.642
-32.685
-32.524
-31.421
-29.876
-28.245
-26.798
-25.696
-24.959
-24.643
-24.819
-25.495
-26.645
-28.235
-30.211
-32.551
-35.26
-38.328
-41.744
-45.471
-49.453
-53.635
-57.956
-62.374
-66.868
-71.423
-76.029
-80.684
-85.386
-90.148
-94.993
-99.939
-104.989
-110.15
-115.419
-120.802
-126.31
-131.952
-137.731
-143.645
-149.686
-155.846
-162.116
-168.48
-174.921
-181.415
-187.936
-194.458
-200.958
-207.412
-213.793
-220.074
-226.225
-232.219
-238.027
-243.621
-248.97
-254.044
-258.813
-263.248
-267.321
-271.007
-274.278
-277.111
-279.484
-281.376
-282.768
-283.646
-283.995
-283.804
-283.064
-281.771
-279.921
-277.516
-274.557
-271.053
-267.011
-262.446
-257.372
-251.807
-245.773
-239.292
-232.392
-225.099
-217.445
-209.461
-201.182
-192.641
-183.876
-174.924
-165.824
-156.614
-147.334
-138.023
-128.719
-119.461
-110.287
-101.233
-92.334
-83.624
-75.137
-66.901
-58.946
-51.298
-43.982
-37.019
-30.429
-24.228
-18.43
-13.048
-8.09
-3.564
0.529
4.185
7.406
10.195
12.558
14.503
16.04
17.18
17.937
18.327
18.366
18.072
17.466
16.567
15.398
13.979
12.335
10.489
8.464
6.284
3.973
1.554
-0.949
-3.513
-6.115
-8.735
-11.35
-13.94
-16.487
-18.971
-21.375
-23.683
-25.878
-27.946
-29.874
-31.65
-33.262
-34.701
-35.957
-37.024
-37.894
-38.563
-39.026
-39.279
-39.322
-39.152
-38.77
-38.177
-37.374
-36.366
-35.154
-33.745
-32.142
-30.353
-28.384
-26.241
-23.932
-21.466
-18.85
-16.094
-13.207
-10.198
-7.076
-3.853
-0.538
2.857
6.323
9.849
13.423
17.036
20.675
24.331
27.994
31.651
35.295
38.913
42.497
46.038
49.525
52.951
56.307
59.585
62.779
65.881
68.886
71.788
74.581
77.262
79.825
82.268
84.585
86.775
88.833
90.76
92.552
94.21
95.734
97.122
98.377
99.5
100.492
101.357
102.096
102.712
103.21
103.593
103.866
104.033
104.1
104.072
103.957
103.76
103.489
103.15
102.751
102.298
101.798
101.26
100.691
100.098
99.489
98.872
98.258
97.659
97.084
96.543
96.047
95.607
95.232
94.932
94.714
94.579
94.533
94.58
94.727
94.979
95.339
95.808
96.388
97.083
97.893
98.816
99.843
100.964
102.171
103.461
104.834
106.296
107.851
109.496
111.228
113.043
114.932
116.878
118.856
120.825
122.749
124.599
126.347
127.972
129.45
130.746
131.828
132.658
133.198
133.418
133.306
132.856
132.089
131.04
129.748
128.291
126.755
125.234
123.846
122.677
121.788
121.26
121.193
121.67
122.744
124.329
126.138
127.868
129.254
130.023
129.887
128.534
125.746
121.763
117.319
113.273
110.343
109.177
110.414
114.682
122.527
132.427
140.905
145.056
142.056
132.635
121.06
107.045
88.164
58.799
8.53
-64.657
-157.281
-264.011
-373.407
-477.602
-569.103
-635.721
-664.097
-640.639
-558.717
-421.5
-244.704
-52.895
130.418
283.469
391.742
450.543
460.425
426.252
358.966
273.812
186.616
116.276
75.988
65.964
80.219
104.885
125.265
136.575
139.175
137.28
136.649
138.207
140.079
140.032
135.781
127.244
115.881
103.303
91.227
80.58
71.71
64.83
59.857
56.628
54.899
54.243
54.173
54.363
54.57
54.591
54.357
53.801
52.869
51.571
49.901
47.83
45.349
42.457
39.167
35.51
31.495
27.158
22.596
17.887
13.11
8.343
3.576
-1.216
-5.967
-10.751
-15.833
-21.241
-26.866
-32.784
-38.791
-45.259
-53.602
-63.599
-73.826
-81.968
-83.944
-79.167
-71.293
-65.752
-69.063
-83.691
-106.093
-129.072
-145.974
-153.235
-151.663
-147.113
-144.06
-144.901
-150.845
-158.868
-166.817
-174.113
-179.663
-184.289
-188.719
-192.663
-196.266
-199.433
-201.929
-203.877
-205.375
-206.396
-206.96
-207.083
-206.734
-205.895
-204.56
-202.71
-200.326
-197.424
-194.014
-190.104
-185.711
-180.853
-175.549
-169.823
-163.702
-157.211
-150.376
-143.226
-135.793
-128.108
-120.204
-112.114
-103.872
-95.513
-87.071
-78.581
-70.077
-61.591
-53.158
-44.808
-36.572
-28.479
-20.557
-12.831
-5.325
1.939
8.94
15.661
22.087
28.204
34.003
39.474
44.613
49.416
53.882
58.011
61.805
65.271
68.412
71.238
73.755
75.976
77.909
79.568
80.964
82.111
83.023
83.714
84.199
84.491
84.606
84.558
84.361
84.029
83.577
83.017
82.363
81.627
80.819
79.952
79.034
78.076
77.084
76.068
75.033
73.985
72.93
71.873
70.816
69.765
68.722
67.691
66.673
65.672
64.691
63.73
62.794
61.884
61.003
60.153
59.336
58.555
57.812
57.11
56.451
55.837
55.27
54.753
54.288
53.877
53.523
53.229
52.996
52.828
52.727
52.694
52.732
52.843
53.029
53.289
53.626
54.039
54.529
55.094
55.733
56.444
57.223
58.067
58.971
59.93
60.937
61.985
63.068
64.177
65.303
66.44
67.577
68.706
69.817
70.902
71.95
72.951
73.894
74.771
75.569
76.281
76.895
77.402
77.794
78.063
78.201
78.201
78.057
77.763
77.314
76.708
75.94
75.011
73.919
72.666
71.255
69.692
67.984
66.136
64.159
62.062
59.857
57.554
55.167
52.71
50.197
47.641
45.062
42.476
39.903
37.366
34.883
32.478
30.171
27.984
25.938
24.051
22.339
20.815
19.494
18.392
17.522
16.896
16.529
16.43
16.611
17.078
17.834
18.881
20.216
21.828
23.71
25.855
28.26
30.93
33.867
37.063
40.507
44.182
48.064
52.125
56.329
60.622
64.95
69.26
73.505
77.649
81.665
85.524
89.181
92.578
95.659
98.399
100.798
102.862
104.601
106.021
107.138
108.03
108.806
109.577
110.452
111.498
112.728
114.184
115.987
118.224
120.884
123.79
126.541
128.762
130.268
130.873
130.233
128.062
124.268
119.159
113.721
108.948
105.349
103.445
103.913
107.146
113.104
120.145
124.762
123.955
115.999
101.586
82.678
58.541
27.014
-15.645
-73.18
-144.11
-225.345
-314.365
-405.391
-491.88
-564.506
-605.331
-598.677
-537.114
-420.34
-264.735
-94.788
67.961
202.577
297.191
349.972
362.124
340.081
295.516
239.87
185.327
144.205
119.916
110.292
109.891
108.568
102.412
92.97
83.003
77.921
79.34
84.771
91.597
96.908
99.072
98.183
94.579
88.715
81.299
73.2
65.322
58.307
52.544
48.153
45.071
43.199
42.308
42.005
41.813
41.392
40.557
39.243
37.48
35.281
32.633
29.562
26.13
22.389
18.374
14.1
9.555
4.755
-0.254
-5.417
-10.659
-15.929
-21.205
-26.47
-31.716
-36.937
-42.127
-47.289
-52.44
-57.59
-62.746
-67.909
-73.075
-78.247
-83.436
-88.651
-93.906
-99.205
-104.546
-109.925
-115.336
-120.772
-126.219
-131.662
-137.079
-142.452
-147.762
-152.993
-158.124
-163.135
-168.004
-172.708
-177.225
-181.531
-185.602
-189.413
-192.939
-196.155
-199.04
-201.572
-203.728
-205.49
-206.839
-207.758
-208.232
-208.248
-207.795
-206.862
-205.443
-203.532
-201.128
-198.229
-194.839
-190.963
-186.608
-181.785
-176.509
-170.794
-164.66
-158.126
-151.216
-143.955
-136.369
-128.487
-120.337
-111.952
-103.362
-94.601
-85.703
-76.701
-67.627
-58.517
-49.402
-40.315
-31.287
-22.348
-13.526
-4.85
3.655
11.964
20.055
27.905
35.495
42.809
49.831
56.548
62.947
69.021
74.763
80.167
85.232
89.956
94.34
98.388
102.103
105.493
108.564
111.324
113.785
115.955
117.847
119.472
120.843
121.972
122.872
123.556
124.034
124.321
124.427
124.364
124.144
123.776
123.271
122.64
121.89
121.033
120.074
119.023
117.886
116.67
115.381
114.024
112.604
111.125
109.591
108.006
106.371
104.691
102.967
101.2
99.394
97.549
95.667
93.749
91.797
89.812
87.797
85.754
83.684
81.591
79.478
77.346
75.201
73.044
70.879
68.71
66.54
64.372
62.21
60.058
57.919
55.797
53.694
51.614
49.559
47.534
45.54
43.58
41.657
39.772
37.928
36.127
34.369
32.658
30.994
29.379
27.813
26.297
24.832
23.416
22.051
20.736
19.47
18.252
17.081
15.957
14.878
13.843
12.852
11.902
10.994
10.126
9.298
8.509
7.757
7.043
6.366
5.727
5.125
4.559
4.031
3.541
3.089
2.675
2.3
1.964
1.666
1.408
1.189
1.01
0.869
0.768
0.706
0.683
0.698
0.751
0.842
0.969
1.13
1.324
1.55
1.805
2.085
2.388
2.71
3.048
3.398
3.756
4.118
4.477
4.831
5.175
5.503
5.81
6.091
6.34
6.553
6.725
6.852
6.93
6.954
6.92
6.825
6.668
6.446
6.157
5.799
5.371
4.875
4.311
3.682
2.988
2.234
1.425
0.567
-0.329
-1.258
-2.209
-3.173
-4.141
-5.101
-6.042
-6.958
-7.841
-8.682
-9.472
-10.198
-10.85
-11.418
-11.891
-12.259
-12.509
-12.632
-12.622
-12.479
-12.2
-11.784
-11.221
-10.498
-9.608
-8.549
-7.319
-5.917
-4.351
-2.635
-0.799
1.111
3.055
4.999
6.916
8.788
10.586
12.279
13.832
15.214
16.405
17.39
18.143
18.645
18.918
19.014
19.025
19.061
19.199
19.493
20.009
20.815
21.976
23.55
25.562
27.999
30.911
34.402
38.482
43.081
47.967
52.696
56.864
60.14
62.025
62.01
59.948
55.775
49.803
43.053
36.377
30.599
27.125
26.026
25.54
24.547
21.323
16.179
13.414
13.471
12.972
4.343
-24.375
-78.451
-155.085
-246.148
-341.268
-434.864
-524.512
-605.955
-668.404
-694.649
-668.983
-584.959
-450.595
-287.255
-121.786
22.327
128.568
189.89
208.294
189.192
144.027
87.794
34.736
0.256
-9.466
2.116
26.218
47.793
58.527
58.165
49.985
41.884
37.591
36.037
35.738
34.092
30.201
25.141
19.699
14.515
10.091
6.591
4.091
2.651
2.16
2.392
3.203
4.502
6.139
7.958
9.791
11.445
12.799
13.777
14.298
14.303
13.751
12.609
10.877
8.574
5.718
2.34
-1.534
-5.882
-10.666
-15.844
-21.362
-27.154
-33.169
-39.372
-45.734
-52.237
-58.867
-65.611
-72.469
-79.449
-86.555
-93.787
-101.139
-108.601
-116.161
-123.815
-131.553
-139.369
-147.25
-155.179
-163.137
-171.104
-179.055
-186.965
-194.805
-202.54
-210.138
-217.568
-224.802
-231.808
-238.557
-245.018
-251.162
-256.959
-262.381
-267.401
-271.989
-276.12
-279.769
-282.913
-285.532
-287.608
-289.126
-290.073
-290.44
-290.218
-289.405
-288
-286.003
-283.419
-280.257
-276.526
-272.24
-267.416
-262.074
-256.235
-249.925
-243.171
-236.003
-228.455
-220.559
-212.353
-203.874
-195.16
-186.253
-177.193
-168.022
-158.781
-149.513
-140.258
-131.059
-121.954
-112.982
-104.18
-95.583
-87.222
-79.129
-71.331
-63.854
-56.719
-49.947
-43.554
-37.555
-31.96
-26.778
-22.014
-17.669
-13.743
-10.231
-7.128
-4.425
-2.108
-0.165
1.421
2.668
3.597
4.228
4.585
4.692
4.573
4.253
3.759
3.116
2.349
1.483
0.543
-0.449
-1.47
-2.499
-3.516
-4.504
-5.444
-6.324
-7.128
-7.846
-8.467
-8.983
-9.389
-9.678
-9.85
-9.901
-9.834
-9.649
-9.351
-8.944
-8.434
-7.828
-7.133
-6.36
-5.517
-4.614
-3.661
-2.669
-1.647
-0.606
0.444
1.493
2.533
3.556
4.552
5.516
6.442
7.323
8.155
8.935
9.66
10.327
10.936
11.486
11.978
12.412
12.791
13.116
13.392
13.622
13.81
13.961
14.08
14.171
14.24
14.292
14.333
14.368
14.401
14.438
14.484
14.542
14.616
14.711
14.829
14.973
15.146
15.349
15.584
15.853
16.157
16.496
16.872
17.283
17.732
18.217
18.74
19.299
19.896
20.531
21.203
21.913
22.661
23.449
24.276
25.144
26.053
27.006
28.004
29.048
30.142
31.287
32.485
33.741
35.056
36.433
37.875
39.385
40.965
42.617
44.343
46.146
48.026
49.986
52.024
54.142
56.339
58.613
60.963
63.385
65.877
68.434
71.051
73.723
76.443
79.205
82.001
84.822
87.661
90.508
93.353
96.186
98.994
101.767
104.492
107.158
109.753
112.265
114.682
116.994
119.19
121.26
123.195
124.985
126.621
128.095
129.402
130.535
131.489
132.26
132.845
133.244
133.456
133.484
133.33
132.999
132.495
131.823
130.993
130.012
128.891
127.639
126.269
124.793
123.23
121.597
119.913
118.195
116.464
114.738
113.039
111.384
109.789
108.267
106.832
105.499
104.283
103.2
102.264
101.487
100.883
100.465
100.242
100.222
100.407
100.792
101.378
102.165
103.155
104.361
105.788
107.435
109.299
111.371
113.634
116.065
118.627
121.272
123.958
126.642
129.283
131.855
134.319
136.648
138.816
140.776
142.49
143.93
145.078
145.946
146.573
146.992
147.25
147.412
147.542
147.735
148.094
148.697
149.624
150.902
152.57
154.753
157.503
160.756
164.315
167.76
170.637
172.668
173.517
172.717
170.058
165.542
159.533
153.058
147.145
142.515
139.973
140.205
143.307
148.837
155.53
160.973
162.73
158.446
145.305
120.816
83.026
32.218
-28.021
-93.05
-158.253
-223.166
-292.385
-367.803
-446.553
-516.364
-554.342
-541.161
-467.596
-339.183
-179.223
-16.931
122.878
224.692
285
310.407
309.59
290.058
260.344
226.415
194.949
172.966
161.707
158.987
158.719
154.658
145.473
133.344
123.32
119.053
120.441
125.602
131.793
137.136
141.377
144.588
146.554
147.124
146.369
144.568
142.3
140.233
138.616
137.551
137.269
137.793
139.038
140.888
142.969
144.86
146.359
147.345
147.743
147.585
146.86
145.541
143.695
141.395
138.691
135.627
132.209
128.432
124.322
119.93
115.315
110.535
105.62
100.589
95.456
90.23
84.926
79.549
74.094
68.557
62.943
57.256
51.514
45.729
39.907
34.05
28.161
22.243
16.307
10.364
4.426
-1.493
-7.378
-13.211
-18.97
-24.639
-30.199
-35.638
-40.94
-46.092
-51.078
-55.885
-60.5
-64.911
-69.105
-73.069
-76.792
-80.264
-83.477
-86.424
-89.099
-91.497
-93.615
-95.452
-97.008
-98.285
-99.286
-100.016
-100.479
-100.683
-100.636
-100.349
-99.832
-99.097
-98.156
-97.023
-95.715
-94.246
-92.633
-90.893
-89.044
-87.104
-85.092
-83.026
-80.926
-78.81
-76.698
-74.608
-72.56
-70.572
-68.663
-66.849
-65.149
-63.579
-62.152
-60.884
-59.786
-58.87
-58.146
-57.624
-57.31
-57.211
-57.332
-57.678
-58.25
-59.051
-60.081
-61.339
-62.823
-64.529
-66.454
-68.593
-70.939
-73.487
-76.227
-79.152
-82.253
-85.519
-88.941
-92.507
-96.205
-100.023
-103.948
-107.968
-112.067
-116.235
-120.456
-124.718
-129.009
-133.316
-137.626
-141.929
-146.212
-150.466
-154.679
-158.843
-162.948
-166.986
-170.949
-174.828
-178.618
-182.312
-185.904
-189.389
-192.762
-196.019
-199.155
-202.167
-205.052
-207.808
-210.432
-212.924
-215.283
-217.507
-219.599
-221.558
-223.385
-225.082
-226.65
-228.09
-229.405
-230.596
-231.663
-232.61
-233.437
-234.144
-234.734
-235.208
-235.565
-235.806
-235.932
-235.943
-235.84
-235.621
-235.289
-234.841
-234.281
-233.606
-232.819
-231.919
-230.907
-229.783
-228.55
-227.206
-225.753
-224.191
-222.521
-220.744
-218.86
-216.871
-214.778
-212.583
-210.288
-207.895
-205.406
-202.826
-200.158
-197.405
-194.572
-191.664
-188.686
-185.644
-182.543
-179.391
-176.194
-172.958
-169.69
-166.398
-163.088
-159.768
-156.443
-153.122
-149.811
-146.516
-143.246
-140.007
-136.806
-133.651
-130.548
-127.505
-124.529
-121.626
-118.801
-116.062
-113.414
-110.863
-108.412
-106.067
-103.833
-101.714
-99.713
-97.833
-96.078
-94.45
-92.949
-91.577
-90.335
-89.222
-88.238
-87.382
-86.654
-86.052
-85.575
-85.22
-84.986
-84.868
-84.863
-84.966
-85.171
-85.471
-85.861
-86.332
-86.876
-87.484
-88.148
-88.857
-89.603
-90.374
-91.161
-91.951
-92.73
-93.484
-94.198
-94.858
-95.448
-95.953
-96.359
-96.652
-96.82
-96.857
-96.753
-96.5
-96.088
-95.507
-94.749
-93.807
-92.672
-91.339
-89.805
-88.067
-86.129
-84
-81.687
-79.198
-76.535
-73.693
-70.666
-67.457
-64.07
-60.515
-56.81
-52.974
-49.038
-45.048
-41.043
-37.067
-33.159
-29.342
-25.644
-22.091
-18.713
-15.563
-12.693
-10.137
-7.917
-6.03
-4.453
-3.163
-2.126
-1.285
-0.574
0.098
0.815
1.632
2.594
3.699
4.984
6.615
8.683
11.146
13.845
16.395
18.399
19.649
19.834
18.425
15.126
9.954
3.308
-3.779
-10.088
-14.649
-16.485
-14.343
-8.354
-0.573
6.718
10.231
8.446
4.56
0.28
-5.395
-15.652
-41.119
-91.77
-171.216
-281.171
-414.028
-554.776
-687.14
-788.004
-835.396
-815.554
-724.033
-572.395
-384.683
-191.036
-19.614
110.83
191.585
227.2
227
199.871
158.213
109.073
59.822
21.396
-4.041
-16.202
-18.386
-20.764
-26.506
-34.67
-43.08
-45.913
-41.7
-33.094
-22.752
-13.833
-8.072
-5.324
-5.246
-7.386
-11.037
-15.312
-19.287
-22.318
-24.008
-24.257
-23.147
-20.782
-17.418
-13.486
-9.481
-5.76
-2.518
0.17
2.317
3.91
4.93
5.394
5.353
4.85
3.902
2.509
0.649
-1.668
-4.403
-7.505
-10.909
-14.572
-18.473
-22.598
-26.935
-31.477
-36.218
-41.156
-46.299
-51.651
-57.207
-62.957
-68.889
-74.992
-81.262
-87.696
-94.288
-101.029
-107.899
-114.88
-121.947
-129.077
-136.24
-143.404
-150.534
-157.595
-164.556
-171.385
-178.05
-184.518
-190.755
-196.73
-202.41
-207.764
-212.76
-217.368
-221.558
-225.304
-228.578
-231.359
-233.623
-235.352
-236.529
-237.139
-237.171
-236.614
-235.464
-233.716
-231.369
-228.426
-224.891
-220.773
-216.083
-210.835
-205.045
-198.734
-191.924
-184.639
-176.908
-168.76
-160.227
-151.341
-142.138
-132.654
-122.925
-112.99
-102.887
-92.656
-82.335
-71.964
-61.581
-51.225
-40.933
-30.742
-20.686
-10.799
-1.114
8.34
17.534
26.442
35.039
43.303
51.214
58.756
65.911
72.669
79.018
84.953
90.466
95.557
100.226
104.474
108.306
111.73
114.754
117.389
119.647
121.542
123.089
124.305
125.207
125.814
126.145
126.221
126.062
125.689
125.124
124.386
123.499
122.482
121.357
120.144
118.863
117.534
116.175
114.805
113.441
112.099
110.796
109.545
108.36
107.254
106.236
105.319
104.509
103.814
103.242
102.797
102.485
102.308
102.269
102.37
102.61
102.991
103.51
104.167
104.957
105.877
106.925
108.095
109.382
110.78
112.284
113.886
115.58
117.358
119.212
121.133
123.114
125.146
127.22
129.326
131.458
133.606
135.761
137.915
140.061
142.189
144.293
146.362
148.391
150.371
152.295
154.158
155.952
157.672
159.312
160.869
162.339
163.716
165
166.185
167.272
168.258
169.143
169.928
170.614
171.202
171.696
172.1
172.419
172.66
172.828
172.931
172.976
172.973
172.932
172.863
172.775
172.682
172.598
172.54
172.523
172.563
172.678
172.885
173.201
173.644
174.229
174.967
175.87
176.953
178.229
179.713
181.417
183.354
185.534
187.971
190.675
193.652
196.907
200.435
204.236
208.31
212.662
217.303
222.239
227.469
232.991
238.8
244.882
251.218
257.777
264.51
271.375
278.332
285.344
292.388
299.429
306.429
313.356
320.165
326.816
333.28
339.533
345.57
351.414
357.107
362.702
368.282
373.915
379.682
385.676
391.978
398.665
405.782
413.367
421.494
430.216
439.537
449.318
459.215
468.829
477.811
485.804
492.412
497.29
500.193
501.293
501.368
501.304
501.873
503.902
508.097
515.042
525.249
537.236
547.541
553.357
551.532
541.986
528.444
510.318
486.507
454.052
403.912
334.464
247.048
141.742
29.111
-79.94
-173.209
-227.452
-225.646
-159.985
-29.814
145.417
337.943
523.498
678.519
790.577
858.418
883.281
871.489
834.016
781.467
726.107
681.508
652.754
638.725
634.42
628.766
616.661
599.518
580.568
566.758
561.445
563.182
569.623
577.217
583.362
587.234
588.621
587.633
584.52
579.705
573.724
567.232
561.119
556.036
552.252
549.874
548.746
548.541
548.959
549.638
550.15
550.232
549.762
548.681
547.036
544.884
542.246
539.182
535.758
532.004
527.941
523.587
518.952
514.076
509.023
503.836
498.545
493.169
487.709
482.166
476.538
470.813
464.972
459
452.892
446.645
440.265
433.751
427.101
420.306
413.363
406.271
399.034
391.659
384.156
376.541
368.832
361.054
353.234
345.398
337.57
329.776
322.04
314.391
306.857
299.467
292.248
285.232
278.447
271.926
265.698
259.793
254.237
249.057
244.278
239.922
236.01
232.563
229.596
227.124
225.159
223.712
222.788
222.392
222.525
223.185
224.367
226.063
228.263
230.952
234.114
237.727
241.77
246.217
251.04
256.209
261.692
267.455
273.461
279.674
286.056
292.567
299.168
305.817
312.475
319.102
325.658
332.104
338.402
344.516
350.41
356.05
361.406
366.446
371.144
375.472
379.408
382.93
386.021
388.665
390.848
392.561
393.795
394.547
394.814
394.597
393.9
392.729
391.091
388.999
386.464
383.501
380.127
376.359
372.217
367.721
362.894
357.758
352.336
346.651
340.73
334.594
328.269
321.779
315.147
308.398
301.553
294.636
287.668
280.669
273.659
266.658
259.681
252.747
245.869
239.061
232.336
225.704
219.175
212.757
206.456
200.278
194.227
188.304
182.513
176.852
171.321
165.917
160.638
155.478
150.433
145.498
140.664
135.925
131.273
126.699
122.193
117.747
113.35
108.991
104.66
100.345
96.037
91.722
87.391
83.031
78.631
74.181
69.668
65.082
60.41
55.643
50.77
45.78
40.666
35.416
30.024
24.48
18.779
12.914
6.88
0.67
-5.72
-12.292
-19.049
-25.992
-33.122
-40.439
-47.942
-55.627
-63.49
-71.526
-79.729
-88.093
-96.61
-105.268
-114.058
-122.966
-131.981
-141.088
-150.271
-159.509
-168.782
-178.07
-187.351
-196.604
-205.806
-214.932
-223.961
-232.873
-241.65
-250.272
-258.717
-266.963
-274.987
-282.771
-290.296
-297.542
-304.491
-311.122
-317.426
-323.397
-329.028
-334.313
-339.237
-343.781
-347.934
-351.694
-355.059
-358.03
-360.62
-362.84
-364.724
-366.321
-367.678
-368.833
-369.818
-370.654
-371.373
-372.019
-372.64
-373.285
-373.989
-374.774
-375.673
-376.708
-377.863
-379.101
-380.344
-381.49
-382.474
-383.235
-383.711
-383.842
-383.55
-382.762
-381.45
-379.578
-377.084
-373.961
-370.258
-366.147
-362.028
-358.328
-355.397
-353.617
-353.422
-355.067
-358.593
-363.721
-369.559
-375.191
-380.119
-383.703
-385.193
-384.28
-380.938
-376.536
-374.661
-378.724
-391.444
-413.28
-440.908
-470.951
-500.671
-531.407
-571.318
-630.17
-717.365
-835.101
-971.476
-1104.501
-1205.912
-1249.058
-1219.782
-1119.482
-963.213
-776.186
-588.008
-422.929
-297.158
-219.514
-185.707
-187.751
-218.679
-265.848
-320.979
-375.105
-414.581
-435.699
-438.626
-428.197
-416.802
-409.513
-406.543
-405.971
-401.663
-392.282
-380.225
-367.705
-358.051
-352.655
-350.849
-352.013
-355.162
-359.071
-362.831
-365.8
-367.479
-367.71
-366.57
-364.144
-360.647
-356.488
-352.136
-347.956
-344.187
-340.938
-338.222
-336.071
-334.521
-333.568
-333.183
-333.336
-334.019
-335.232
-336.993
-339.309
-342.152
-345.483
-349.248
-353.384
-357.852
-362.623
-367.675
-372.994
-378.568
-384.385
-390.447
-396.764
-403.337
-410.167
-417.25
-424.576
-432.144
-439.955
-448.009
-456.307
-464.841
-473.597
-482.558
-491.706
-501.018
-510.467
-520.024
-529.651
-539.314
-548.979
-558.61
-568.174
-577.631
-586.942
-596.069
-604.972
-613.612
-621.949
-629.943
-637.553
-644.74
-651.467
-657.698
-663.398
-668.534
-673.076
-676.995
-680.266
-682.866
-684.776
-685.98
-686.464
-686.219
-685.24
-683.526
-681.08
-677.908
-674.023
-669.438
-664.174
-658.253
-651.703
-644.553
-636.837
-628.592
-619.855
-610.67
-601.08
-591.13
-580.868
-570.343
-559.604
-548.702
-537.688
-526.611
-515.522
-504.47
-493.503
-482.667
-472.007
-461.566
-451.383
-441.498
-431.943
-422.752
-413.952
-405.567
-397.62
-390.127
-383.101
-376.553
-370.488
-364.909
-359.813
-355.195
-351.048
-347.36
-344.115
-341.296
-338.883
-336.855
-335.185
-333.849
-332.819
-332.065
-331.557
-331.265
-331.158
-331.205
-331.373
-331.632
-331.951
-332.3
-332.652
-332.977
-333.249
-333.446
-333.543
-333.52
-333.36
-333.045
-332.563
-331.901
-331.05
-330.005
-328.759
-327.313
-325.665
-323.818
-321.778
-319.551
-317.146
-314.573
-311.844
-308.973
-305.973
-302.861
-299.652
-296.364
-293.013
-289.619
-286.201
-282.776
-279.366
-275.988
-272.664
-269.41
-266.246
-263.189
-260.255
-257.459
-254.815
-252.337
-250.035
-247.922
-246.006
-244.294
-242.793
-241.507
-240.439
-239.591
-238.96
-238.545
-238.339
-238.337
-238.531
-238.912
-239.471
-240.195
-241.073
-242.09
-243.234
-244.487
-245.834
-247.254
-248.727
-250.23
-251.741
-253.237
-254.694
-256.088
-257.396
-258.598
-259.673
-260.606
-261.379
-261.974
-262.376
-262.567
-262.531
-262.251
-261.712
-260.904
-259.817
-258.445
-256.785
-254.842
-252.621
-250.126
-247.358
-244.306
-240.963
-237.328
-233.405
-229.206
-224.752
-220.067
-215.187
-210.164
-205.052
-199.905
-194.773
-189.688
-184.675
-179.755
-174.959
-170.342
-165.956
-161.836
-157.99
-154.395
-151.015
-147.811
-144.734
-141.716
-138.656
-135.432
-131.959
-128.228
-124.304
-120.276
-116.127
-111.704
-106.931
-101.874
-96.65
-91.356
-86.064
-80.928
-76.388
-73.197
-71.189
-69.173
-66.387
-62.869
-61.293
-66.042
-78.302
-95.263
-110.263
-115.284
-107.635
-90.634
-71.134
-56.652
-51.573
-57.912
-76.811
-111.246
-165.394
-241.057
-339.015
-453.797
-573
-681.591
-758.607
-784.885
-749.783
-651.151
-500.197
-318.283
-130.49
38.976
170.649
253.785
287.955
278.454
238.491
184.81
130.882
89.63
65.001
52.991
48.129
41.423
29.759
16.084
4.12
-0.205
5.321
18.456
36.265
54.811
71.079
84.138
93.747
99.985
103.256
104.107
103.207
101.509
100.167
99.856
100.832
103.187
106.707
111.106
116.145
121.449
126.56
131.222
135.323
138.826
141.817
144.349
146.428
148.097
149.417
150.419
151.126
151.549
151.678
151.53
151.147
150.553
149.77
148.809
147.672
146.356
144.859
143.172
141.274
139.157
136.826
134.288
131.555
128.643
125.565
122.338
118.996
115.568
112.082
108.565
105.026
101.476
97.935
94.424
90.971
87.589
84.258
80.95
77.648
74.321
70.939
67.463
63.812
59.929
55.79
51.378
46.717
41.851
36.809
31.624
26.35
21.044
15.809
10.791
6.105
1.882
-1.726
-4.567
-6.432
-7.129
-6.541
-4.567
-1.154
3.706
10.031
17.84
27.107
37.809
49.891
63.212
77.652
93.078
109.298
126.117
143.279
160.503
177.588
194.369
210.703
226.501
241.662
256.067
269.638
282.283
293.907
304.503
314.056
322.559
330.073
336.677
342.493
347.704
352.437
356.77
360.777
364.491
367.945
371.207
374.317
377.324
380.31
383.307
386.344
389.46
392.643
395.862
399.061
402.138
405.012
407.649
410.02
412.118
413.953
415.51
416.793
417.812
418.554
419.016
419.2
419.099
418.727
418.118
417.309
416.365
415.345
414.284
413.216
412.163
411.137
410.155
409.224
408.342
407.512
406.743
406.04
405.412
404.865
404.393
403.992
403.649
403.353
403.092
402.857
402.639
402.43
402.222
402.012
401.796
401.572
401.331
401.068
400.772
400.433
400.043
399.591
399.069
398.466
397.774
396.987
396.096
395.097
393.984
392.75
391.393
389.909
388.295
386.55
384.674
382.67
380.54
378.288
375.921
373.444
370.865
368.193
365.438
362.61
359.72
356.781
353.805
350.807
347.805
344.816
341.859
338.952
336.116
333.371
330.736
328.231
325.87
323.67
321.643
319.804
318.166
316.745
315.552
314.602
313.905
313.472
313.31
313.425
313.816
314.479
315.408
316.6
318.052
319.77
321.757
324.006
326.511
329.256
332.217
335.363
338.653
342.028
345.435
348.824
352.145
355.367
358.459
361.388
364.122
366.615
368.814
370.697
372.245
373.458
374.371
375.025
375.481
375.849
376.216
376.668
377.307
378.184
379.34
380.815
382.582
384.667
387.187
390.11
393.314
396.609
399.594
401.925
403.409
403.628
402.038
398.439
392.808
385.47
377.256
368.882
360.881
354.022
349.281
346.411
343.786
339.484
330.747
316.864
301.212
285.932
271.176
255.382
229.796
185.53
118.682
25.769
-87.799
-208.431
-321.124
-404.493
-438.408
-411.699
-321.859
-179.146
-4.591
175.544
337.19
462.685
541.811
577.132
575.345
543.692
495.345
438.415
381.671
337.713
308.404
293.046
287.273
279.417
266.143
248.919
230.404
217.527
212.762
214.443
220.865
228.914
236.188
241.875
245.542
247.168
247.005
245.285
242.178
237.983
233.371
229.133
225.733
223.36
221.927
221.151
220.848
220.885
221.002
220.876
220.297
219.16
217.466
215.315
212.767
209.833
206.542
202.934
199.042
194.903
190.544
185.977
181.214
176.269
171.149
165.866
160.423
154.819
149.045
143.086
136.933
130.585
124.047
117.327
110.432
103.365
96.127
88.722
81.16
73.451
65.607
57.639
49.564
41.4
33.173
24.911
16.64
8.384
0.169
-7.982
-16.041
-23.982
-31.777
-39.402
-46.83
-54.033
-60.985
-67.659
-74.031
-80.076
-85.773
-91.103
-96.047
-100.587
-104.708
-108.399
-111.649
-114.448
-116.79
-118.67
-120.086
-121.038
-121.527
-121.559
-121.139
-120.277
-118.982
-117.269
-115.153
-112.65
-109.778
-106.56
-103.015
-99.169
-95.043
-90.665
-86.058
-81.251
-76.27
-71.142
-65.894
-60.552
-55.145
-49.697
-44.235
-38.781
-33.361
-27.995
-22.706
-17.512
-12.434
-7.486
-2.686
1.952
6.417
10.696
14.78
18.661
22.333
25.791
29.032
32.053
34.855
37.438
39.805
41.958
43.903
45.643
47.186
48.537
49.703
50.693
51.513
52.173
52.679
53.042
53.268
53.367
53.346
53.213
52.977
52.644
52.221
51.715
51.132
50.478
49.758
48.978
48.142
47.256
46.322
45.346
44.33
43.278
42.193
41.077
39.933
38.763
37.569
36.353
35.117
33.863
32.594
31.31
30.015
28.711
27.399
26.082
24.762
23.44
22.119
20.801
19.487
18.18
16.883
15.597
14.325
13.069
11.831
10.612
9.414
8.238
7.083
5.949
4.837
3.746
2.674
1.621
0.586
-0.435
-1.441
-2.436
-3.422
-4.404
-5.383
-6.365
-7.352
-8.349
-9.359
-10.387
-11.435
-12.507
-13.604
-14.728
-15.881
-17.064
-18.28
-19.528
-20.809
-22.122
-23.467
-24.842
-26.245
-27.672
-29.115
-30.567
-32.019
-33.464
-34.891
-36.291
-37.652
-38.966
-40.224
-41.421
-42.55
-43.602
-44.566
-45.434
-46.198
-46.848
-47.376
-47.774
-48.034
-48.153
-48.132
-47.976
-47.684
-47.259
-46.696
-45.984
-45.118
-44.095
-42.917
-41.585
-40.111
-38.511
-36.813
-35.057
-33.283
-31.529
-29.831
-28.218
-26.726
-25.379
-24.207
-23.256
-22.565
-22.164
-22.069
-22.276
-22.765
-23.525
-24.532
-25.721
-27.015
-28.304
-29.478
-30.45
-31.154
-31.524
-31.446
-30.838
-29.683
-28.094
-26.365
-24.838
-23.808
-23.569
-24.483
-26.84
-30.776
-36.084
-42.045
-47.778
-52.451
-55.254
-55.477
-52.666
-46.833
-38.89
-30.671
-24.437
-22.865
-28.763
-44.846
-73.955
-117.129
-172.221
-235.887
-303.776
-373.289
-447.91
-530.328
-618.17
-703.367
-765.593
-782.676
-742.631
-643.008
-498.097
-332.951
-170.681
-32.036
70.846
134.771
161.388
156.367
126.439
80.801
29.376
-17.259
-49.942
-66.954
-72.02
-73.545
-79.031
-89.593
-102.586
-112.362
-115.141
-111.552
-103.785
-95.125
-88.125
-83.621
-81.76
-82.364
-85.079
-89.425
-94.971
-101.124
-107.07
-112.236
-116.32
-119.189
-120.978
-121.966
-122.385
-122.532
-122.798
-123.417
-124.515
-126.162
-128.304
-130.889
-133.896
-137.278
-140.968
-144.932
-149.147
-153.586
-158.246
-163.094
-168.07
-173.132
-178.245
-183.384
-188.54
-193.708
-198.88
-204.058
-209.253
-214.471
-219.715
-224.985
-230.274
-235.58
-240.905
-246.253
-251.63
-257.039
-262.478
-267.943
-273.427
-278.919
-284.406
-289.87
-295.292
-300.65
-305.927
-311.104
-316.162
-321.081
-325.84
-330.416
-334.788
-338.931
-342.823
-346.439
-349.753
-352.742
-355.385
-357.659
-359.544
-361.021
-362.071
-362.677
-362.824
-362.5
-361.692
-360.39
-358.587
-356.278
-353.459
-350.129
-346.292
-341.951
-337.114
-331.79
-325.991
-319.732
-313.032
-305.908
-298.384
-290.482
-282.23
-273.654
-264.784
-255.649
-246.283
-236.716
-226.984
-217.12
-207.157
-197.131
-187.074
-177.02
-167.001
-157.05
-147.198
-137.472
-127.903
-118.516
-109.337
-100.389
-91.693
-83.27
-75.137
-67.309
-59.8
-52.62
-45.779
-39.282
-33.135
-27.338
-21.892
-16.794
-12.04
-7.624
-3.537
0.228
3.684
6.843
9.717
12.321
14.669
16.778
18.662
20.338
21.823
23.132
24.283
25.29
26.171
26.94
27.614
28.206
28.731
29.202
29.634
30.038
30.427
30.81
31.199
31.603
32.031
32.49
32.988
33.531
34.124
34.772
35.479
36.248
37.081
37.981
38.949
39.986
41.094
42.274
43.525
44.85
46.247
47.719
49.265
50.885
52.579
54.348
56.192
58.11
60.103
62.169
64.309
66.521
68.804
71.156
73.575
76.059
78.604
81.207
83.864
86.571
89.324
92.118
94.948
97.81
100.698
103.606
106.529
109.459
112.39
115.313
118.22
121.103
123.952
126.759
129.514
132.208
134.831
137.376
139.831
142.188
144.437
146.57
148.579
150.456
152.193
153.785
155.229
156.52
157.656
158.638
159.465
160.139
160.662
161.037
161.267
161.358
161.315
161.145
160.856
160.458
159.964
159.389
158.747
158.053
157.324
156.576
155.827
155.092
154.384
153.714
153.098
152.548
152.08
151.706
151.438
151.288
151.265
151.38
151.636
152.037
152.582
153.266
154.088
155.05
156.154
157.41
158.826
160.397
162.123
163.997
166.007
168.137
170.356
172.622
174.898
177.142
179.314
181.383
183.308
185.048
186.564
187.796
188.691
189.226
189.385
189.158
188.553
187.557
186.194
184.55
182.713
180.795
178.899
177.086
175.464
174.176
173.294
172.846
172.733
172.657
172.333
171.527
169.918
167.222
163.274
158.033
151.899
145.667
140.166
136.181
134.451
135.549
139.675
146.658
155.522
164.347
171.066
172.685
165.081
145.8
113.48
69.286
19.999
-30.843
-83.902
-141.885
-216.284
-312.541
-422.523
-532.504
-615.211
-643.987
-609.83
-513.336
-371.071
-210.123
-51.831
85.614
190.973
260.822
295.926
299.754
276.475
234.858
182.96
130.302
89.734
65.456
57.801
62.642
69.127
72.727
72.989
71.335
73.087
79.345
87.922
96.831
103.005
105.118
103.764
99.511
93.299
86.31
79.434
73.298
68.386
64.849
62.611
61.593
61.597
62.251
63.128
63.894
64.334
64.344
63.905
62.998
61.604
59.754
57.532
54.995
52.169
49.061
45.647
41.926
37.962
33.78
29.37
24.796
20.133
15.557
11.375
7.713
4.486
1.576
-1.195
-4.058
-7.202
-11.085
-16.461
-23.672
-32.634
-43.003
-54.122
-65.428
-76.566
-86.843
-95.241
-101.233
-104.765
-106.254
-106.647
-106.639
-106.589
-107.073
-108.828
-112.276
-117.556
-124.362
-131.913
-139.68
-147.425
-154.86
-161.715
-167.793
-172.945
-177.252
-181.027
-184.445
-187.553
-190.364
-192.826
-194.918
-196.664
-198.035
-198.963
-199.409
-199.357
-198.813
-197.819
-196.395
-194.545
-192.271
-189.567
-186.436
-182.892
-178.946
-174.613
-169.909
-164.848
-159.448
-153.731
-147.715
-141.424
-134.88
-128.102
-121.114
-113.944
-106.622
-99.18
-91.651
-84.063
-76.447
-68.83
-61.24
-53.705
-46.252
-38.905
-31.689
-24.626
-17.738
-11.046
-4.569
1.678
7.679
13.423
18.9
24.1
29.017
33.646
37.984
42.032
45.788
49.258
52.444
55.352
57.991
60.368
62.493
64.377
66.031
67.468
68.7
69.74
70.602
71.3
71.848
72.259
72.547
72.727
72.811
72.812
72.744
72.619
72.447
72.239
72.007
71.759
71.504
71.25
71.004
70.77
70.556
70.363
70.197
70.058
69.948
69.869
69.82
69.8
69.809
69.846
69.908
69.993
70.099
70.223
70.362
70.513
70.673
70.84
71.009
71.178
71.344
71.504
71.656
71.796
71.923
72.034
72.127
72.201
72.254
72.285
72.295
72.281
72.246
72.19
72.113
72.017
71.904
71.775
71.633
71.48
71.318
71.151
70.981
70.81
70.641
70.478
70.322
70.176
70.041
69.92
69.813
69.723
69.649
69.593
69.553
69.53
69.524
69.533
69.556
69.592
69.638
69.692
69.752
69.813
69.873
69.927
69.97
69.998
70.005
69.987
69.938
69.853
69.726
69.552
69.325
69.041
68.695
68.28
67.792
67.229
66.586
65.861
65.051
64.156
63.176
62.111
60.963
59.735
58.431
57.053
55.607
54.101
52.539
50.93
49.281
47.603
45.908
44.208
42.52
40.855
39.228
37.655
36.152
34.733
33.412
32.197
31.099
30.132
29.307
28.639
28.136
27.806
27.658
27.701
27.941
28.38
29.018
29.846
30.86
32.061
33.453
35.043
36.833
38.817
40.986
43.331
45.837
48.483
51.239
54.053
56.883
59.695
62.452
65.127
67.678
70.053
72.202
74.075
75.625
76.818
77.636
78.067
78.121
77.826
77.208
76.34
75.303
74.172
73.046
72.01
71.133
70.531
70.337
70.607
71.332
72.376
73.434
74.21
74.43
73.768
71.915
68.675
64.05
58.456
52.671
47.507
43.723
41.866
42.249
45.082
50.227
56.65
62.731
65.658
61.466
47.259
21.526
-14.346
-55.779
-98.796
-143.008
-193.086
-256.786
-340.579
-444.183
-557.068
-662.329
-741.128
-775.396
-755.37
-680.605
-555.9
-397.043
-226.499
-64.982
64.807
148.35
185.524
180.63
146.582
101.075
55.289
20.465
3.358
1.212
9.708
20.549
25.662
23.931
17.405
10.545
6.94
6.316
6.593
5.376
1.725
-3.783
-10.216
-16.671
-22.7
-28.058
-32.36
-35.404
-37.22
-37.945
-37.826
-37.057
-35.746
-34.056
-32.173
-30.282
-28.568
-27.163
-26.136
-25.553
-25.459
-25.876
-26.832
-28.327
-30.327
-32.796
-35.691
-38.974
-42.62
-46.591
-50.836
-55.295
-59.898
-64.59
-69.341
-74.128
-78.935
-83.756
-88.581
-93.414
-98.273
-103.173
-108.12
-113.118
-118.162
-123.251
-128.388
-133.577
-138.82
-144.112
-149.445
-154.809
-160.193
-165.584
-170.963
-176.312
-181.603
-186.816
-191.931
-196.925
-201.78
-206.473
-210.982
-215.288
-219.368
-223.204
-226.772
-230.051
-233.019
-235.657
-237.947
-239.87
-241.411
-242.554
-243.288
-243.601
-243.484
-242.93
-241.935
-240.494
-238.607
-236.276
-233.504
-230.298
-226.667
-222.621
-218.173
-213.338
-208.136
-202.584
-196.704
-190.519
-184.053
-177.333
-170.386
-163.241
-155.926
-148.471
-140.909
-133.269
-125.585
-117.887
-110.206
-102.574
-95.021
-87.575
-80.264
-73.116
-66.154
-59.404
-52.886
-46.621
-40.627
-34.92
-29.514
-24.421
-19.651
-15.211
-11.107
-7.341
-3.914
-0.826
1.927
4.349
6.448
8.232
9.712
10.9
11.808
12.453
12.849
13.013
12.963
12.717
12.294
11.713
10.993
10.153
9.212
8.188
7.101
5.966
4.802
3.624
2.448
1.286
0.154
-0.938
-1.979
-2.959
-3.87
-4.704
-5.456
-6.121
-6.694
-7.174
-7.558
-7.848
-8.043
-8.145
-8.158
-8.085
-7.929
-7.697
-7.393
-7.024
-6.596
-6.116
-5.59
-5.025
-4.429
-3.807
-3.167
-2.514
-1.855
-1.193
-0.535
0.117
0.758
1.387
2
2.597
3.177
3.739
4.283
4.811
5.324
5.825
6.315
6.797
7.276
7.755
8.239
8.731
9.239
9.765
10.315
10.894
11.508
12.16
12.855
13.598
14.393
15.242
16.148
17.114
18.14
19.228
20.376
21.584
22.849
24.169
25.539
26.955
28.411
29.901
31.418
32.955
34.504
36.056
37.601
39.131
40.635
42.102
43.521
44.88
46.167
47.371
48.481
49.484
50.369
51.125
51.743
52.211
52.521
52.665
52.634
52.422
52.023
51.433
50.649
49.669
48.492
47.12
45.556
43.802
41.867
39.755
37.475
35.035
32.446
29.721
26.873
23.916
20.865
17.736
14.55
11.328
8.091
4.861
1.661
-1.486
-4.555
-7.524
-10.369
-13.074
-15.619
-17.986
-20.155
-22.108
-23.826
-25.296
-26.502
-27.43
-28.066
-28.402
-28.431
-28.157
-27.581
-26.702
-25.518
-24.023
-22.216
-20.101
-17.686
-14.981
-12.004
-8.781
-5.353
-1.775
1.904
5.638
9.383
13.106
16.761
20.302
23.687
26.875
29.826
32.505
34.881
36.939
38.705
40.227
41.575
42.836
44.068
45.335
46.723
48.299
50.133
52.277
54.721
57.489
60.697
64.384
68.491
72.861
77.108
80.839
83.792
85.552
85.551
83.464
79.233
73.041
65.611
57.831
50.368
44.272
41
40.293
40.285
39.469
35.226
27.986
22.458
18.763
14.574
3.462
-27.708
-84.877
-167.601
-270.985
-382.563
-492.625
-592.002
-669.799
-715.245
-714.998
-661.741
-555.882
-408.162
-241.436
-78.861
57.077
151.924
205.257
222.349
215.645
197.269
173.642
150.38
128.604
109.216
93.391
79.077
65.725
52.579
40.167
32.138
30.176
34.421
43.536
53.937
63.195
70.348
74.683
76.291
75.43
72.281
67.531
62.204
57.223
53.166
50.39
48.999
48.905
49.977
51.952
54.407
56.881
59.061
60.77
61.938
62.59
62.731
62.35
61.474
60.159
58.447
56.368
53.934
51.134
47.987
44.537
40.843
36.978
32.993
28.914
24.759
20.538
16.256
11.923
7.537
3.083
-1.447
-6.057
-10.744
-15.503
-20.331
-25.234
-30.221
-35.298
-40.466
-45.719
-51.05
-56.45
-61.905
-67.4
-72.915
-78.425
-83.908
-89.343
-94.708
-99.983
-105.144
-110.166
-115.023
-119.693
-124.149
-128.365
-132.314
-135.969
-139.305
-142.297
-144.921
-147.155
-148.979
-150.372
-151.318
-151.803
-151.812
-151.335
-150.363
-148.889
-146.909
-144.422
-141.43
-137.937
-133.95
-129.479
-124.537
-119.139
-113.305
-107.053
-100.407
-93.392
-86.034
-78.363
-70.409
-62.203
-53.78
-45.174
-36.42
-27.555
-18.615
-9.637
-0.658
8.287
17.163
25.936
34.574
43.044
51.317
59.366
67.163
74.685
81.91
88.817
95.39
101.613
107.474
112.963
118.072
122.795
127.131
131.077
134.636
137.81
140.606
143.031
145.094
146.807
148.181
149.23
149.97
150.417
150.588
150.501
150.173
149.624
148.871
147.934
146.832
145.581
144.201
142.709
141.121
139.453
137.719
135.936
134.114
132.268
130.407
128.542
126.682
124.836
123.011
121.213
119.447
117.719
116.032
114.389
112.793
111.246
109.747
108.298
106.898
105.546
104.242
102.985
101.771
100.6
99.469
98.376
97.318
96.293
95.299
94.335
93.397
92.485
91.596
90.731
89.888
89.067
88.267
87.489
86.733
86
85.29
84.605
83.946
83.315
82.712
82.139
81.598
81.091
80.619
80.184
79.787
79.431
79.117
78.847
78.623
78.448
78.322
78.249
78.228
78.263
78.354
78.503
78.71
78.976
79.301
79.686
80.131
80.634
81.195
81.812
82.482
83.205
83.976
84.793
85.651
86.547
87.475
88.432
89.412
90.409
91.419
92.434
93.448
94.455
95.448
96.419
97.359
98.261
99.116
99.916
100.652
101.317
101.901
102.396
102.795
103.09
103.273
103.338
103.277
103.083
102.753
102.28
101.663
100.896
99.979
98.911
97.693
96.327
94.816
93.164
91.376
89.457
87.416
85.263
83.007
80.659
78.231
75.738
73.199
70.632
68.053
65.482
62.937
60.44
58.011
55.669
53.43
51.31
49.327
47.499
45.845
44.383
43.128
42.095
41.3
40.757
40.477
40.467
40.725
41.25
42.043
43.109
44.454
46.08
47.979
50.146
52.572
55.24
58.127
61.195
64.392
67.673
70.999
74.333
77.646
80.9
84.048
87.056
89.884
92.498
94.871
96.964
98.747
100.241
101.478
102.512
103.417
104.227
104.978
105.746
106.586
107.555
108.706
110.02
111.501
113.251
115.311
117.63
120.087
122.343
124.026
124.922
124.729
122.968
119.355
113.863
106.676
98.459
90.111
82.287
75.71
71.584
69.995
69.359
68.316
64.895
58.416
51.914
46.597
39.892
27.26
0.416
-47.729
-116.544
-202.673
-301.383
-404.537
-506.036
-596.882
-661.379
-684.981
-655.58
-569.194
-435.197
-271.498
-102.526
48.397
164.997
238.046
270.502
270.217
244.77
205.586
159.412
113.076
77.549
55.875
48.621
52.64
57.651
59.528
58.052
54.738
55.071
60.597
69.546
79.893
88.62
94.136
96.563
96.192
93.655
89.774
85.225
80.806
77.125
74.529
73.19
73.081
74.093
76.008
78.49
81.112
83.515
85.493
86.94
87.847
88.218
88.033
87.297
86.052
84.342
82.192
79.613
76.594
73.126
69.236
64.966
60.374
55.524
50.455
45.192
39.757
34.164
28.43
22.568
16.577
10.448
4.18
-2.224
-8.754
-15.4
-22.157
-29.027
-36.009
-43.101
-50.293
-57.571
-64.921
-72.328
-79.773
-87.232
-94.68
-102.089
-109.433
-116.686
-123.824
-130.82
-137.648
-144.282
-150.695
-156.862
-162.76
-168.361
-173.643
-178.58
-183.15
-187.332
-191.107
-194.454
-197.356
-199.798
-201.767
-203.25
-204.238
-204.723
-204.701
-204.167
-203.124
-201.573
-199.52
-196.972
-193.94
-190.437
-186.48
-182.087
-177.278
-172.078
-166.509
-160.6
-154.378
-147.873
-141.116
-134.138
-126.973
-119.652
-112.211
-104.684
-97.104
-89.507
-81.927
-74.397
-66.95
-59.618
-52.433
-45.422
-38.615
-32.038
-25.715
-19.669
-13.919
-8.485
-3.381
1.379
5.785
9.828
13.503
16.808
19.743
22.308
24.509
26.351
27.844
28.998
29.824
30.337
30.552
30.485
30.156
29.582
28.784
27.784
26.604
25.264
23.789
22.201
20.522
18.775
16.981
15.162
13.34
11.533
9.76
8.038
6.384
4.812
3.335
1.964
0.708
-0.424
-1.426
-2.294
-3.025
-3.617
-4.071
-4.387
-4.569
-4.62
-4.546
-4.354
-4.052
-3.648
-3.153
-2.578
-1.933
-1.232
-0.487
0.289
1.083
1.88
2.669
3.435
4.165
4.848
5.472
6.026
6.5
6.885
7.173
7.359
7.436
7.401
7.25
6.98
6.592
6.084
5.459
4.717
3.862
2.897
1.828
0.661
-0.599
-1.944
-3.365
-4.853
-6.4
-7.995
-9.627
-11.287
-12.962
-14.641
-16.314
-17.968
-19.593
-21.178
-22.714
-24.19
-25.598
-26.931
-28.181
-29.341
-30.407
-31.373
-32.235
-32.99
-33.634
-34.167
-34.586
-34.89
-35.079
-35.153
-35.113
-34.961
-34.698
-34.326
-33.849
-33.27
-32.592
-31.821
-30.962
-30.019
-29
-27.91
-26.756
-25.546
-24.285
-22.98
-21.638
-20.265
-18.867
-17.45
-16.02
-14.581
-13.14
-11.702
-10.274
-8.86
-7.466
-6.097
-4.761
-3.461
-2.204
-0.996
0.157
1.249
2.274
3.225
4.095
4.88
5.572
6.167
6.66
7.047
7.324
7.488
7.537
7.469
7.282
6.974
6.545
5.993
5.318
4.52
3.599
2.559
1.403
0.138
-1.227
-2.686
-4.23
-5.848
-7.53
-9.268
-11.051
-12.872
-14.723
-16.592
-18.466
-20.332
-22.177
-23.988
-25.753
-27.458
-29.091
-30.641
-32.1
-33.465
-34.727
-35.871
-36.876
-37.713
-38.36
-38.804
-39.03
-39.023
-38.778
-38.293
-37.582
-36.682
-35.624
-34.436
-33.14
-31.755
-30.315
-28.866
-27.462
-26.162
-25.003
-24.004
-23.185
-22.56
-22.123
-21.871
-21.738
-21.607
-21.363
-20.872
-20.016
-18.708
-16.792
-14.07
-10.411
-5.763
-0.255
5.779
12.031
18.231
24.019
29.026
32.95
35.629
37.447
39.284
42.047
46.578
53.579
63.454
76.366
92.239
109.818
126.684
140.3
147.108
143.646
128.237
98.665
54.652
-0.823
-66.041
-138.106
-214.742
-298.066
-389.213
-486.069
-581.935
-662.75
-708.953
-704.902
-644.481
-531.38
-382.851
-220.69
-63.182
72.867
177.343
245.291
273.779
266.583
233.494
188.144
145.465
115.749
101.042
95.711
90.948
80.433
63.206
43.989
29.422
22.962
24.919
33.231
44.266
56.048
67.57
77.376
84.928
90.038
92.433
92.507
90.878
87.856
84.038
80.377
77.388
75.285
74.138
73.639
73.473
73.501
73.451
72.958
71.831
69.952
67.286
63.942
59.993
55.455
50.387
44.846
38.868
32.513
25.823
18.828
11.586
4.148
-3.444
-11.142
-18.915
-26.74
-34.592
-42.458
-50.327
-58.182
-66.005
-73.774
-81.463
-89.056
-96.536
-103.891
-111.11
-118.18
-125.089
-131.825
-138.374
-144.72
-150.845
-156.731
-162.355
-167.702
-172.755
-177.5
-181.925
-186.017
-189.764
-193.155
-196.179
-198.827
-201.088
-202.951
-204.407
-205.447
-206.066
-206.258
-206.017
-205.341
-204.226
-202.672
-200.678
-198.247
-195.378
-192.077
-188.347
-184.194
-179.625
-174.648
-169.273
-163.513
-157.379
-150.886
-144.051
-136.89
-129.423
-121.669
-113.649
-105.386
-96.904
-88.227
-79.38
-70.389
-61.281
-52.085
-42.828
-33.538
-24.245
-14.977
-5.763
3.37
12.394
21.282
30.008
38.546
46.871
54.962
62.794
70.348
77.605
84.547
91.158
97.424
103.334
108.876
114.044
118.83
123.232
127.247
130.875
134.119
136.983
139.471
141.593
143.358
144.776
145.861
146.626
147.086
147.258
147.16
146.809
146.225
145.426
144.433
143.266
141.945
140.49
138.92
137.256
135.515
133.717
131.878
130.015
128.143
126.277
124.43
122.613
120.837
119.111
117.443
115.838
114.301
112.834
111.44
110.118
108.868
107.687
106.57
105.513
104.51
103.553
102.635
101.747
100.88
100.023
99.167
98.301
97.415
96.498
95.541
94.534
93.467
92.331
91.119
89.823
88.437
86.955
85.374
83.69
81.9
80.006
78.006
75.904
73.703
71.407
69.023
66.557
64.018
61.417
58.763
56.069
53.347
50.611
47.876
45.155
42.464
39.818
37.234
34.726
32.311
30.002
27.816
25.765
23.864
22.124
20.558
19.175
17.985
16.996
16.213
15.642
15.285
15.146
15.222
15.513
16.014
16.72
17.623
18.715
19.985
21.419
23.005
24.726
26.566
28.508
30.531
32.618
34.745
36.894
39.041
41.165
43.243
45.251
47.169
48.974
50.646
52.163
53.506
54.656
55.597
56.313
56.79
57.014
56.975
56.664
56.073
55.199
54.037
52.588
50.853
48.836
46.545
43.987
41.174
38.118
34.834
31.338
27.649
23.789
19.778
15.639
11.397
7.08
2.718
-1.66
-6.023
-10.343
-14.587
-18.724
-22.725
-26.56
-30.208
-33.643
-36.841
-39.78
-42.436
-44.788
-46.819
-48.512
-49.848
-50.814
-51.397
-51.593
-51.403
-50.828
-49.867
-48.519
-46.777
-44.643
-42.126
-39.234
-35.984
-32.398
-28.508
-24.358
-20.012
-15.527
-10.956
-6.348
-1.746
2.801
7.239
11.525
15.611
19.456
23.029
26.304
29.269
31.953
34.409
36.712
38.963
41.242
43.627
46.216
49.1
52.36
56.061
60.211
64.813
69.944
75.635
81.811
88.282
94.68
100.624
105.863
110.085
112.804
113.636
112.433
109.364
105.034
99.991
94.627
89.527
85.505
83.401
82.482
80.327
74.745
63.592
48.415
34.327
21.77
9.004
-9.953
-47.379
-107.057
-187.643
-285.371
-387.557
-485.291
-570.42
-629.124
-650.295
-622.378
-538.534
-405.248
-238.89
-64.097
92.856
213.136
289.134
324.459
329.576
316.69
293.761
265.337
235.498
206.106
180.603
161.019
144.606
129.999
115.798
102.139
92.771
89.48
92.477
100.461
110.316
119.825
127.31
131.827
133.412
132.089
128.157
122.311
115.12
107.341
99.973
93.534
88.263
84.248
81.252
78.989
77.194
75.484
73.451
70.874
67.649
63.757
59.273
54.242
48.697
42.709
36.354
29.682
22.729
15.521
8.082
0.469
-7.239
-14.977
-22.694
-30.357
-37.944
-45.436
-52.817
-60.077
-67.221
-74.25
-81.159
-87.941
-94.585
-101.083
-107.44
-113.661
-119.754
-125.723
-131.571
-137.3
-142.909
-148.397
-153.757
-158.983
-164.064
-168.992
-173.764
-178.375
-182.82
-187.095
-191.194
-195.111
-198.841
-202.376
-205.707
-208.823
-211.715
-214.37
-216.779
-218.93
-220.813
-222.415
-223.724
-224.729
-225.418
-225.779
-225.802
-225.475
-224.787
-223.728
-222.291
-220.467
-218.251
-215.637
-212.622
-209.204
-205.383
-201.162
-196.542
-191.529
-186.13
-180.353
-174.209
-167.712
-160.875
-153.716
-146.254
-138.51
-130.508
-122.274
-113.832
-105.213
-96.446
-87.562
-78.593
-69.572
-60.534
-51.512
-42.541
-33.657
-24.893
-16.285
-7.866
0.331
8.275
15.935
23.283
30.291
36.934
43.188
49.032
54.448
59.417
63.927
67.965
71.523
74.594
77.175
79.265
80.868
81.987
82.631
82.811
82.537
81.827
80.697
79.167
77.26
74.997
72.405
69.511
66.341
62.926
59.294
55.476
51.502
47.401
43.205
38.943
34.644
30.337
26.05
21.809
17.64
13.568
9.614
5.8
2.145
-1.334
-4.62
-7.701
-10.564
-13.2
-15.6
-17.758
-19.67
-21.333
-22.747
-23.913
-24.832
-25.51
-25.952
-26.165
-26.156
-25.935
-25.512
-24.896
-24.098
-23.13
-22.002
-20.728
-19.317
-17.783
-16.137
-14.39
-12.554
-10.639
-8.655
-6.612
-4.519
-2.385
-0.218
1.976
4.189
6.415
8.647
10.881
13.111
15.333
17.543
19.736
21.912
24.066
26.197
28.302
30.38
32.429
34.447
36.432
38.381
40.29
42.158
43.983
45.76
47.488
49.163
50.782
52.341
53.839
55.269
56.63
57.916
59.123
60.249
61.289
62.24
63.101
63.868
64.541
65.119
65.603
65.992
66.288
66.491
66.603
66.627
66.567
66.427
66.212
65.928
65.587
65.2
64.78
64.338
63.887
63.442
63.018
62.626
62.279
61.985
61.754
61.601
61.537
61.574
61.725
61.998
62.404
62.953
63.653
64.509
65.522
66.688
68.009
69.491
71.146
72.988
75.027
77.264
79.7
82.334
85.156
88.152
91.291
94.52
97.799
101.09
104.356
107.569
110.682
113.641
116.399
118.899
121.095
122.965
124.482
125.634
126.432
126.889
127.053
127.027
126.909
126.814
126.861
127.126
127.737
128.87
130.623
133.036
136.011
139.252
142.46
145.386
147.692
149.008
149.062
147.687
145.19
142.372
140.082
139.116
140.134
143.654
150.043
159.289
170.377
181.249
189.41
192.292
187.436
172.4
144.775
102.323
45.258
-22.843
-97.656
-174.377
-251.095
-331.5
-417.03
-504.114
-583.521
-635.386
-641.155
-592.741
-490.573
-349.853
-192.887
-38.509
96.214
199.86
267.184
296.402
289.272
253.227
200.812
145.056
100.854
78.704
78.42
94.87
117.134
133.393
140.209
138.555
132.371
127.235
124.484
123.104
121.815
118.977
114.345
108.657
102.813
97.67
93.723
91.135
89.847
89.718
90.692
92.728
95.626
99.192
103.206
107.427
111.716
115.918
119.871
123.462
126.606
129.249
131.366
132.945
133.969
134.453
134.411
133.851
132.792
131.244
129.227
126.777
123.937
120.755
117.268
113.499
109.459
105.152
100.567
95.684
90.481
84.931
79.021
72.749
66.12
59.145
51.85
44.272
36.451
28.424
20.214
11.823
3.262
-5.455
-14.308
-23.268
-32.327
-41.503
-50.8
-60.218
-69.763
-79.436
-89.274
-99.358
-109.742
-120.458
-131.501
-142.807
-154.319
-165.98
-177.704
-189.394
-200.911
-212.066
-222.707
-232.721
-241.985
-250.386
-257.77
-263.926
-268.694
-271.962
-273.656
-273.769
-272.3
-269.246
-264.667
-258.667
-251.397
-243.063
-233.828
-223.808
-213.132
-201.921
-190.333
-178.573
-166.801
-155.132
-143.669
-132.479
-121.63
-111.198
-101.205
-91.626
-82.416
-73.493
-64.815
-56.38
-48.179
-40.209
-32.456
-24.885
-17.489
-10.288
-3.296
3.47
9.997
16.285
22.306
28.01
33.345
38.254
42.698
46.664
50.137
53.112
55.586
57.561
59.053
60.091
60.698
60.897
60.708
60.15
59.25
58.044
56.566
54.85
52.929
50.832
48.588
46.227
43.775
41.254
38.685
36.084
33.471
30.865
28.286
25.751
23.279
20.885
18.583
16.388
14.311
12.361
10.546
8.869
7.336
5.947
4.706
3.609
2.657
1.847
1.175
0.637
0.228
-0.058
-0.226
-0.283
-0.236
-0.092
0.143
0.463
0.86
1.33
1.866
2.464
3.118
3.823
4.576
5.371
6.207
7.078
7.983
8.918
9.883
10.876
11.897
12.946
14.024
15.131
16.27
17.441
18.648
19.891
21.172
22.495
23.861
25.271
26.728
28.233
29.788
31.392
33.047
34.753
36.507
38.31
40.158
42.049
43.979
45.945
47.941
49.963
52.003
54.055
56.112
58.164
60.204
62.222
64.207
66.149
68.038
69.862
71.61
73.271
74.834
76.288
77.622
78.824
79.885
80.792
81.535
82.105
82.493
82.688
82.685
82.475
82.054
81.415
80.557
79.476
78.171
76.642
74.888
72.914
70.722
68.318
65.707
62.899
59.903
56.731
53.396
49.912
46.292
42.554
38.714
34.789
30.798
26.759
22.693
18.619
14.56
10.541
6.586
2.721
-1.03
-4.641
-8.089
-11.348
-14.398
-17.222
-19.805
-22.13
-24.183
-25.949
-27.415
-28.571
-29.408
-29.916
-30.088
-29.923
-29.419
-28.582
-27.422
-25.943
-24.149
-22.044
-19.621
-16.88
-13.831
-10.483
-6.847
-2.949
1.185
5.51
9.966
14.5
19.058
23.585
28.04
32.37
36.526
40.466
44.126
47.45
50.42
53.014
55.229
57.09
58.603
59.812
60.826
61.744
62.693
63.797
65.127
66.778
68.87
71.459
74.57
78.128
81.859
85.454
88.659
91.165
92.677
92.963
91.868
89.6
86.759
84.118
82.366
81.956
83.412
87.247
93.522
101.534
109.074
112.69
109.427
97.573
77.781
51.89
20.655
-16.408
-63.598
-125.124
-202.476
-296.114
-399.73
-504.028
-598.356
-666.483
-693.944
-669.542
-588.319
-458.934
-300.121
-137.237
4.745
109.78
171.778
195.563
190.631
166.395
132.807
96.732
65.687
46.485
40.26
44.87
53.045
57.267
55.141
47.715
39.491
33.925
31.03
29.239
26.211
21.002
14.206
6.648
-0.839
-7.802
-14.019
-19.14
-22.958
-25.504
-26.916
-27.432
-27.237
-26.44
-25.196
-23.683
-22.084
-20.581
-19.301
-18.316
-17.69
-17.468
-17.676
-18.345
-19.477
-21.045
-23.017
-25.355
-28.025
-31.002
-34.253
-37.731
-41.382
-45.143
-48.968
-52.831
-56.714
-60.61
-64.514
-68.424
-72.347
-76.305
-80.312
-84.379
-88.513
-92.712
-96.979
-101.318
-105.736
-110.233
-114.808
-119.452
-124.157
-128.91
-133.698
-138.505
-143.309
-148.085
-152.811
-157.466
-162.028
-166.478
-170.792
-174.948
-178.923
-182.695
-186.244
-189.545
-192.576
-195.314
-197.738
-199.828
-201.566
-202.933
-203.914
-204.495
-204.664
-204.41
-203.726
-202.605
-201.044
-199.043
-196.601
-193.723
-190.415
-186.686
-182.547
-178.01
-173.092
-167.81
-162.184
-156.235
-149.986
-143.462
-136.689
-129.694
-122.506
-115.154
-107.668
-100.078
-92.416
-84.714
-77.001
-69.311
-61.672
-54.114
-46.668
-39.36
-32.218
-25.266
-18.528
-12.025
-5.779
0.193
5.874
11.25
16.309
21.04
25.435
29.487
33.193
36.549
39.556
42.214
44.526
46.497
48.133
49.44
50.429
51.109
51.491
51.587
51.411
50.974
50.293
49.381
48.254
46.927
45.415
43.735
41.901
39.929
37.833
35.629
33.328
30.946
28.494
25.986
23.431
20.842
18.229
15.6
12.966
10.334
7.712
5.108
2.528
-0.023
-2.538
-5.012
-7.442
-9.823
-12.152
-14.425
-16.639
-18.792
-20.881
-22.905
-24.861
-26.749
-28.567
-30.313
-31.986
-33.585
-35.109
-36.557
-37.927
-39.218
-40.428
-41.556
-42.6
-43.558
-44.429
-45.212
-45.905
-46.506
-47.016
-47.432
-47.754
-47.98
-48.111
-48.146
-48.085
-47.927
-47.673
-47.323
-46.879
-46.34
-45.707
-44.983
-44.169
-43.265
-42.274
-41.198
-40.04
-38.802
-37.486
-36.096
-34.636
-33.11
-31.521
-29.875
-28.177
-26.431
-24.643
-22.818
-20.962
-19.08
-17.177
-15.259
-13.333
-11.404
-9.477
-7.559
-5.655
-3.772
-1.917
-0.094
1.69
3.429
5.12
6.754
8.329
9.837
11.275
12.638
13.921
15.118
16.227
17.242
18.161
18.982
19.7
20.315
20.824
21.227
21.524
21.716
21.802
21.784
21.662
21.44
21.122
20.711
20.21
19.626
18.964
18.236
17.451
16.619
15.748
14.849
13.935
13.015
12.099
11.195
10.308
9.448
8.625
7.851
7.138
6.495
5.934
5.465
5.102
4.854
4.727
4.72
4.833
5.072
5.447
5.975
6.667
7.524
8.549
9.742
11.092
12.586
14.19
15.854
17.534
19.193
20.804
22.353
23.812
25.15
26.336
27.334
28.123
28.696
29.031
29.122
29.006
28.735
28.408
28.15
28.051
28.193
28.668
29.548
30.921
32.864
35.396
38.541
42.353
46.824
51.901
57.413
62.956
68.107
72.517
75.772
77.417
77.178
74.955
70.954
65.995
60.888
56.08
52.256
50.168
50.111
52.148
54.801
54.553
48.528
34.535
13.206
-11.757
-38.652
-66.584
-99.847
-147.41
-214.392
-304.965
-414.773
-528.568
-629.872
-698.064
-716.212
-678.452
-586.263
-450.775
-290.126
-125.379
23.991
142.483
218.843
253.273
250.288
215.913
164.611
106.983
54.081
20.764
9.405
17.593
38.234
56.273
65.29
64.915
57.5
50.382
46.385
44.59
44.018
42.471
39.426
35.963
32.769
30.508
29.641
30.102
31.77
34.5
38.009
42.061
46.471
51.064
55.651
60.056
64.143
67.805
70.988
73.658
75.774
77.31
78.257
78.623
78.433
77.721
76.519
74.855
72.769
70.306
67.517
64.465
61.195
57.735
54.11
50.33
46.402
42.334
38.123
33.756
29.228
24.531
19.664
14.631
9.435
4.076
-1.445
-7.127
-12.965
-18.947
-25.061
-31.291
-37.619
-44.023
-50.481
-56.963
-63.441
-69.89
-76.283
-82.595
-88.8
-94.869
-100.774
-106.49
-111.988
-117.241
-122.221
-126.9
-131.252
-135.251
-138.874
-142.098
-144.902
-147.268
-149.177
-150.615
-151.569
-152.028
-151.983
-151.428
-150.357
-148.771
-146.67
-144.059
-140.943
-137.331
-133.236
-128.672
-123.656
-118.206
-112.346
-106.097
-99.485
-92.537
-85.283
-77.751
-69.974
-61.983
-53.812
-45.495
-37.065
-28.557
-20.006
-11.444
-2.906
5.578
13.975
22.255
30.389
38.351
46.113
53.653
60.947
67.976
74.721
81.166
87.297
93.103
98.574
103.702
108.484
112.916
116.999
120.732
124.121
127.17
129.887
132.28
134.36
136.137
137.625
138.837
139.787
140.491
140.964
141.222
141.282
141.16
140.873
140.437
139.868
139.183
138.396
137.522
136.575
135.569
134.516
133.429
132.318
131.193
130.064
128.939
127.826
126.73
125.657
124.612
123.597
122.618
121.674
120.768
119.901
119.073
118.285
117.536
116.825
116.153
115.516
114.916
114.35
113.817
113.316
112.846
112.408
111.999
111.621
111.273
110.956
110.671
110.419
110.201
110.018
109.874
109.769
109.707
109.69
109.721
109.802
109.937
110.13
110.381
110.695
111.073
111.518
112.03
112.611
113.262
113.984
114.776
115.637
116.566
117.563
118.623
119.744
120.921
122.148
123.42
124.73
126.07
127.432
128.807
130.185
131.557
132.913
134.241
135.529
136.766
137.94
139.038
140.048
140.957
141.754
142.426
142.964
143.358
143.599
143.68
143.593
143.331
142.89
142.264
141.452
140.45
139.258
137.875
136.306
134.556
132.634
130.549
128.311
125.933
123.429
120.814
118.101
115.302
112.43
109.499
106.524
103.525
100.519
97.525
94.56
91.645
88.799
86.039
83.382
80.836
78.41
76.114
73.959
71.964
70.154
68.547
67.158
65.998
65.075
64.389
63.936
63.7
63.649
63.758
63.997
64.34
64.773
65.269
65.807
66.36
66.883
67.335
67.693
67.947
68.1
68.175
68.182
68.137
68.103
68.15
68.372
68.873
69.734
71.002
72.727
75.022
77.956
81.524
85.579
89.745
93.59
96.81
99.142
100.227
99.84
97.945
94.834
91.461
88.989
88.249
89.845
94.451
102.474
113.627
126.936
139.504
146.974
146.749
137.238
118.086
91.288
56.081
10.732
-45.63
-115.284
-197.008
-288.725
-386.953
-482.211
-562.993
-611.771
-611.289
-554.269
-441.28
-287.783
-118.141
44.572
178.676
272.977
325.246
339.328
323.976
285.821
233.379
174.223
116.282
71.397
44.246
34.95
38.835
44.609
46.957
45.18
41.03
40.089
43.739
49.994
56.866
61.365
62.318
60.422
56.297
50.822
45.002
39.539
34.946
31.634
29.707
29.044
29.486
30.789
32.572
34.409
36
37.157
37.803
37.961
37.634
36.805
35.491
33.735
31.567
29.004
26.051
22.688
18.924
14.79
10.328
5.592
0.617
-4.584
-10.002
-15.632
-21.471
-27.512
-33.752
-40.2
-46.855
-53.711
-60.757
-67.978
-75.364
-82.911
-90.616
-98.476
-106.482
-114.62
-122.875
-131.227
-139.651
-148.12
-156.601
-165.055
-173.448
-181.742
-189.904
-197.899
-205.692
-213.252
-220.549
-227.552
-234.225
-240.529
-246.42
-251.861
-256.824
-261.281
-265.217
-268.622
-271.499
-273.868
-275.756
-277.174
-278.124
-278.6
-278.574
-278.027
-276.941
-275.289
-273.069
-270.276
-266.898
-262.944
-258.411
-253.279
-247.513
-241.048
-233.804
-225.75
-216.882
-207.22
-196.836
-185.809
-174.239
-162.268
-150.008
-137.559
-125.024
-112.471
-99.971
-87.633
-75.575
-63.947
-52.927
-42.637
-33.16
-24.565
-16.847
-9.98
-3.903
1.512
6.372
10.75
14.718
18.309
21.552
24.511
27.252
29.857
32.443
35.089
37.856
40.802
43.935
47.235
50.659
54.107
57.491
60.762
63.876
66.82
69.593
72.175
74.556
76.73
78.67
80.356
81.778
82.913
83.765
84.353
84.707
84.882
84.931
84.888
84.78
84.624
84.427
84.199
83.943
83.651
83.325
82.968
82.585
82.188
81.782
81.367
80.943
80.505
80.046
79.562
79.054
78.519
77.959
77.377
76.779
76.171
75.563
74.959
74.363
73.778
73.204
72.644
72.099
71.57
71.057
70.561
70.085
69.629
69.195
68.785
68.4
68.04
67.706
67.398
67.116
66.86
66.628
66.421
66.237
66.075
65.936
65.818
65.721
65.643
65.585
65.545
65.523
65.518
65.531
65.56
65.606
65.671
65.754
65.858
65.983
66.132
66.307
66.51
66.742
67.006
67.302
67.633
68.001
68.407
68.852
69.338
69.866
70.437
71.051
71.71
72.412
73.158
73.947
74.776
75.645
76.551
77.49
78.459
79.452
80.464
81.49
82.523
83.557
84.583
85.593
86.58
87.536
88.453
89.321
90.133
90.879
91.552
92.145
92.649
93.058
93.365
93.563
93.649
93.618
93.467
93.193
92.795
92.272
91.624
90.854
89.963
88.956
87.837
86.612
85.291
83.887
82.41
80.873
79.291
77.679
76.053
74.429
72.822
71.242
69.702
68.217
66.802
65.474
64.246
63.131
62.144
61.299
60.608
60.081
59.725
59.538
59.524
59.689
60.04
60.594
61.358
62.336
63.526
64.925
66.522
68.302
70.236
72.281
74.399
76.559
78.727
80.883
82.999
85.037
86.962
88.731
90.305
91.657
92.771
93.648
94.31
94.792
95.144
95.432
95.728
96.105
96.64
97.398
98.439
99.809
101.558
103.776
106.495
109.66
113.101
116.488
119.454
121.742
123.101
123.182
121.787
118.934
114.913
110.511
106.619
103.734
102.125
102.184
104.089
107.577
112.072
115.145
113.022
103.05
83.199
54.861
22.963
-9.072
-38.857
-70.235
-113.01
-174.488
-260.605
-366.033
-472.794
-562.027
-610.712
-604.197
-543.386
-434.39
-294.387
-144.115
0.715
124.4
216.963
273.517
292.71
278.158
236.661
179.448
117.988
63.614
25.261
3.905
-3.683
-4.654
-6.138
-9.694
-13.619
-13.971
-8.321
1.963
13.78
23.511
29.234
30.882
28.974
24.438
18.16
11.029
4.196
-1.44
-5.487
-7.822
-8.549
-7.91
-6.115
-3.511
-0.596
2.298
4.994
7.415
9.609
11.607
13.38
14.938
16.321
17.539
18.611
19.535
20.277
20.835
21.226
21.476
21.631
21.718
21.737
21.691
21.571
21.365
21.066
20.661
20.122
19.43
18.565
17.506
16.243
14.755
13.021
11.015
8.712
6.093
3.148
-0.132
-3.752
-7.714
-12.018
-16.659
-21.625
-26.907
-32.494
-38.373
-44.53
-50.949
-57.607
-64.482
-71.55
-78.785
-86.158
-93.638
-101.194
-108.792
-116.399
-123.982
-131.505
-138.935
-146.235
-153.372
-160.312
-167.021
-173.468
-179.62
-185.449
-190.925
-196.023
-200.72
-204.994
-208.825
-212.198
-215.098
-217.515
-219.442
-220.873
-221.807
-222.245
-222.192
-221.656
-220.647
-219.178
-217.267
-214.932
-212.194
-209.077
-205.607
-201.811
-197.718
-193.358
-188.762
-183.963
-178.993
-173.884
-168.67
-163.383
-158.055
-152.718
-147.403
-142.138
-136.953
-131.875
-126.927
-122.135
-117.519
-113.099
-108.891
-104.911
-101.17
-97.678
-94.442
-91.466
-88.753
-86.302
-84.111
-82.174
-80.484
-79.033
-77.811
-76.804
-75.999
-75.382
-74.936
-74.645
-74.491
-74.458
-74.526
-74.679
-74.898
-75.166
-75.466
-75.781
-76.095
-76.394
-76.663
-76.889
-77.06
-77.167
-77.2
-77.151
-77.016
-76.79
-76.471
-76.058
-75.552
-74.956
-74.273
-73.51
-72.673
-71.769
-70.809
-69.802
-68.758
-67.69
-66.608
-65.525
-64.453
-63.403
-62.387
-61.417
-60.502
-59.653
-58.88
-58.19
-57.593
-57.094
-56.701
-56.416
-56.244
-56.187
-56.246
-56.42
-56.707
-57.104
-57.606
-58.208
-58.902
-59.679
-60.53
-61.444
-62.409
-63.412
-64.441
-65.479
-66.514
-67.529
-68.512
-69.446
-70.317
-71.112
-71.817
-72.42
-72.909
-73.274
-73.504
-73.59
-73.526
-73.305
-72.923
-72.375
-71.66
-70.777
-69.729
-68.518
-67.149
-65.626
-63.958
-62.153
-60.22
-58.172
-56.022
-53.782
-51.47
-49.1
-46.69
-44.261
-41.83
-39.418
-37.043
-34.726
-32.486
-30.342
-28.313
-26.417
-24.67
-23.089
-21.69
-20.487
-19.494
-18.721
-18.18
-17.878
-17.823
-18.021
-18.472
-19.179
-20.141
-21.355
-22.819
-24.526
-26.469
-28.639
-31.025
-33.614
-36.393
-39.344
-42.448
-45.681
-49.021
-52.445
-55.928
-59.444
-62.966
-66.47
-69.933
-73.335
-76.656
-79.872
-82.963
-85.906
-88.681
-91.269
-93.65
-95.805
-97.719
-99.379
-100.778
-101.913
-102.782
-103.38
-103.702
-103.732
-103.464
-102.897
-102.032
-100.879
-99.452
-97.777
-95.89
-93.847
-91.693
-89.477
-87.246
-85.033
-82.881
-80.823
-78.891
-77.13
-75.584
-74.282
-73.246
-72.469
-71.915
-71.551
-71.327
-71.163
-70.985
-70.693
-70.184
-69.379
-68.211
-66.663
-64.723
-62.316
-59.412
-56.058
-52.412
-48.826
-45.687
-43.241
-41.761
-41.635
-43.112
-46.303
-51.055
-56.608
-62.158
-67.216
-71.122
-73.223
-73.294
-71.242
-68.3
-67.552
-71.679
-83.125
-101.94
-125.134
-151.167
-178.422
-209.615
-252.226
-310.597
-390.05
-489.402
-596.807
-698.694
-773.731
-800.299
-767.606
-672.635
-526.642
-353.846
-180.454
-30.476
77.83
137.192
149.606
121.336
66.614
3.016
-54.093
-89.694
-98.481
-84.673
-56.55
-26.322
-2.649
10.719
13.403
7.571
-3.303
-14.609
-23.378
-27.211
-26.158
-23.568
-21.396
-20.978
-22.437
-23.838
-24.338
-23.955
-22.741
-21.197
-19.521
-17.543
-15.317
-12.993
-10.681
-8.516
-6.596
-4.981
-3.753
-2.982
-2.687
-2.862
-3.486
-4.53
-5.963
-7.74
-9.814
-12.144
-14.682
-17.386
-20.202
-23.063
-25.917
-28.728
-31.466
-34.115
-36.667
-39.109
-41.444
-43.684
-45.842
-47.927
-49.95
-51.913
-53.826
-55.702
-57.553
-59.396
-61.245
-63.106
-64.987
-66.896
-68.839
-70.819
-72.838
-74.892
-76.98
-79.101
-81.255
-83.441
-85.657
-87.896
-90.154
-92.424
-94.7
-96.971
-99.227
-101.452
-103.635
-105.761
-107.814
-109.778
-111.636
-113.369
-114.959
-116.386
-117.632
-118.675
-119.497
-120.076
-120.393
-120.43
-120.168
-119.59
-118.68
-117.422
-115.803
-113.812
-111.438
-108.672
-105.508
-101.941
-97.969
-93.593
-88.813
-83.634
-78.062
-72.106
-65.777
-59.087
-52.053
-44.689
-37.017
-29.055
-20.828
-12.357
-3.669
5.209
14.25
23.425
32.704
42.058
51.454
60.864
70.255
79.597
88.86
98.013
107.028
115.877
124.532
132.969
141.163
149.092
156.734
164.072
171.089
177.768
184.099
190.068
195.669
200.893
205.737
210.197
214.273
217.966
221.28
224.221
226.794
229.009
230.877
232.409
233.619
234.523
235.134
235.471
235.552
235.395
235.018
234.442
233.686
232.769
231.712
230.533
229.251
227.885
226.452
224.969
223.451
221.914
220.37
218.834
217.316
215.827
214.377
212.974
211.624
210.333
209.107
207.949
206.86
205.844
204.9
204.027
203.225
202.492
201.825
201.22
200.674
200.183
199.742
199.345
198.989
198.668
198.376
198.11
197.865
197.636
197.421
197.215
197.016
196.821
196.63
196.44
196.252
196.065
195.879
195.696
195.518
195.346
195.182
195.029
194.891
194.77
194.668
194.59
194.538
194.515
194.524
194.567
194.648
194.768
194.929
195.132
195.379
195.671
196.006
196.384
196.802
197.259
197.751
198.275
198.827
199.402
199.993
200.597
201.206
201.814
202.414
202.998
203.557
204.085
204.573
205.013
205.398
205.72
205.973
206.151
206.248
206.262
206.186
206.019
205.757
205.4
204.946
204.396
203.751
203.013
202.187
201.279
200.299
199.257
198.161
197.022
195.854
194.668
193.476
192.288
191.111
189.954
188.829
187.747
186.721
185.762
184.881
184.088
183.395
182.812
182.345
181.996
181.76
181.639
181.635
181.757
182.021
182.437
183.006
183.726
184.596
185.605
186.735
187.954
189.214
190.469
191.683
192.822
193.863
194.775
195.523
196.066
196.357
196.355
196.031
195.373
194.379
193.069
191.478
189.654
187.691
185.693
183.763
182.007
180.508
179.33
178.551
178.288
178.607
179.508
180.88
182.43
183.819
184.728
184.819
183.726
181.145
176.932
171.327
165.032
158.947
154.019
150.997
150.327
152.436
157.414
164.246
171.283
175.721
173.183
161.122
138.325
104.136
62.045
14.475
-39.605
-100.148
-171.262
-258.466
-359.228
-466.499
-566.177
-634.016
-649.997
-604.088
-496.278
-344.326
-174.388
-10.645
125.595
224.009
282.79
305.602
299.281
268.306
221.198
166.602
114.958
81.547
71.309
82.152
105.786
126.339
136.281
135.2
126.463
117.815
112.247
108.807
106.211
102.293
96.691
90.545
84.552
79.322
75.248
72.267
70.303
69.246
68.831
68.854
69.183
69.689
70.244
70.715
70.94
70.793
70.214
69.154
67.58
65.477
62.82
59.612
55.888
51.687
47.05
42.017
36.618
30.889
24.882
18.656
12.28
5.811
-0.718
-7.276
-13.844
-20.409
-26.956
-33.482
-39.999
-46.512
-53.025
-59.536
-66.036
-72.519
-78.987
-85.438
-91.873
-98.285
-104.666
-111.006
-117.293
-123.514
-129.653
-135.691
-141.606
-147.375
-152.981
-158.404
-163.628
-168.631
-173.396
-177.902
-182.132
-186.068
-189.691
-192.982
-195.922
-198.492
-200.678
-202.462
-203.831
-204.771
-205.269
-205.315
-204.9
-204.018
-202.662
-200.829
-198.517
-195.727
-192.461
-188.724
-184.523
-179.868
-174.769
-169.24
-163.296
-156.957
-150.24
-143.168
-135.763
-128.051
-120.057
-111.809
-103.336
-94.668
-85.835
-76.87
-67.805
-58.673
-49.506
-40.338
-31.202
-22.131
-13.156
-4.308
4.381
12.884
21.172
29.219
37
44.491
51.672
58.523
65.026
71.166
76.929
82.303
87.28
91.851
96.012
99.761
103.095
106.016
108.528
110.635
112.345
113.665
114.606
115.18
115.399
115.279
114.835
114.084
113.042
111.729
110.163
108.364
106.35
104.142
101.759
99.221
96.547
93.756
90.867
87.898
84.868
81.794
78.692
75.58
72.471
69.382
66.325
63.314
60.36
57.475
54.668
51.948
49.324
46.802
44.389
42.089
39.908
37.848
35.913
34.104
32.424
30.872
29.45
28.158
26.996
25.963
25.059
24.283
23.635
23.112
22.714
22.44
22.287
22.254
22.338
22.537
22.849
23.271
23.799
24.43
25.162
25.99
26.912
27.924
29.022
30.203
31.462
32.796
34.2
35.669
37.2
38.787
40.424
42.105
43.825
45.575
47.349
49.139
50.935
52.729
54.51
56.267
57.99
59.666
61.284
62.833
64.3
65.674
66.943
68.097
69.125
70.016
70.759
71.345
71.763
72.006
72.064
71.929
71.594
71.054
70.302
69.335
68.151
66.747
65.123
63.278
61.215
58.938
56.45
53.759
50.871
47.796
44.546
41.136
37.582
33.903
30.116
26.242
22.302
18.316
14.304
10.284
6.272
2.284
-1.663
-5.55
-9.358
-13.07
-16.668
-20.135
-23.454
-26.613
-29.602
-32.412
-35.045
-37.495
-39.761
-41.835
-43.698
-45.334
-46.737
-47.903
-48.837
-49.553
-50.067
-50.408
-50.622
-50.749
-50.832
-50.911
-51.002
-51.127
-51.308
-51.572
-51.973
-52.566
-53.378
-54.425
-55.695
-57.156
-58.78
-60.519
-62.298
-64.027
-65.6
-66.913
-67.904
-68.529
-68.784
-68.618
-67.873
-66.46
-64.432
-62.033
-59.718
-57.914
-56.882
-56.973
-58.704
-62.391
-68.057
-75.134
-82.367
-88.622
-93.003
-94.52
-92.364
-86.25
-77.297
-68.398
-63.081
-64.127
-71.35
-83.323
-100.456
-124.778
-162.33
-218.972
-295.855
-391.155
-497.58
-604.872
-701.209
-772.373
-804.948
-788.341
-719.725
-604.696
-456.139
-292.208
-131.278
9.902
119.246
189.849
222.058
221.169
192.999
147.699
93.797
40.318
-0.047
-23.308
-30.089
-25.915
-23.291
-27.358
-37.971
-52.455
-63.827
-69.416
-70.025
-66.758
-62.38
-58.707
-56.201
-55.183
-55.429
-56.571
-58.597
-61.493
-65.118
-69.053
-72.599
-75.3
-77.016
-77.815
-77.922
-77.54
-76.797
-75.91
-75.205
-74.882
-75.052
-75.756
-76.91
-78.452
-80.363
-82.606
-85.137
-87.938
-90.976
-94.224
-97.672
-101.285
-105.035
-108.913
-112.905
-117.005
-121.218
-125.543
-129.995
-134.6
-139.371
-144.315
-149.432
-154.716
-160.168
-165.791
-171.587
-177.55
-183.675
-189.951
-196.366
-202.909
-209.558
-216.292
-223.081
-229.893
-236.7
-243.473
-250.18
-256.791
-263.273
-269.592
-275.714
-281.606
-287.234
-292.56
-297.55
-302.168
-306.381
-310.157
-313.466
-316.28
-318.571
-320.317
-321.497
-322.092
-322.088
-321.471
-320.234
-318.369
-315.876
-312.755
-309.011
-304.652
-299.688
-294.135
-288.01
-281.334
-274.132
-266.429
-258.257
-249.648
-240.637
-231.26
-221.559
-211.574
-201.347
-190.924
-180.352
-169.675
-158.943
-148.202
-137.499
-126.881
-116.395
-106.084
-95.992
-86.159
-76.624
-67.423
-58.592
-50.161
-42.159
-34.611
-27.54
-20.966
-14.904
-9.368
-4.367
0.094
4.01
7.384
10.218
12.519
14.298
15.568
16.346
16.65
16.502
15.927
14.951
13.604
11.916
9.921
7.651
5.141
2.428
-0.453
-3.465
-6.572
-9.74
-12.933
-16.116
-19.258
-22.326
-25.29
-28.123
-30.796
-33.286
-35.569
-37.625
-39.436
-40.987
-42.263
-43.253
-43.95
-44.347
-44.44
-44.23
-43.717
-42.906
-41.804
-40.418
-38.761
-36.845
-34.685
-32.297
-29.701
-26.913
-23.956
-20.849
-17.615
-14.274
-10.849
-7.36
-3.83
-0.279
3.273
6.805
10.301
13.741
17.109
20.391
23.571
26.638
29.58
32.387
35.051
37.566
39.926
42.129
44.172
46.054
47.777
49.343
50.755
52.02
53.142
54.13
54.991
55.735
56.37
56.906
57.353
57.72
58.017
58.252
58.434
58.57
58.669
58.736
58.778
58.8
58.807
58.803
58.791
58.774
58.752
58.727
58.698
58.664
58.624
58.576
58.517
58.445
58.357
58.25
58.12
57.965
57.78
57.562
57.306
57.011
56.672
56.286
55.854
55.373
54.848
54.283
53.683
53.054
52.404
51.741
51.075
50.415
49.768
49.141
48.539
47.974
47.456
46.997
46.607
46.295
46.073
45.953
45.945
46.058
46.296
46.658
47.148
47.774
48.548
49.488
50.609
51.919
53.422
55.121
57.015
59.093
61.333
63.692
66.132
68.617
71.112
73.589
76.013
78.344
80.54
82.551
84.333
85.856
87.107
88.079
88.789
89.262
89.535
89.693
89.841
90.088
90.553
91.341
92.518
94.178
96.445
99.368
102.932
107.012
111.284
115.41
119.14
122.177
124.181
124.946
124.379
122.685
120.589
118.895
118.2
118.994
121.711
126.531
133.316
141.39
148.321
150.544
145.001
128.85
102.546
69.725
32.895
-4.966
-46.167
-98.731
-168.12
-260.482
-372.638
-488.25
-589.164
-650.369
-652.446
-592.66
-475.311
-318.524
-147.589
17.994
159.4
263.604
326.258
345.966
326.687
279.949
219.323
159.492
115.446
92.223
87.536
94.847
102.094
103.99
101.478
96.945
96.421
101.864
110.68
120.695
128.983
133.759
135.375
134.37
131.362
127.393
123.511
120.267
118.019
117.032
117.221
118.494
120.759
123.613
126.544
129.224
131.429
133.034
134.054
134.462
134.204
133.306
131.81
129.748
127.154
124.038
120.391
116.223
111.575
106.493
101.037
95.269
89.229
82.946
76.444
69.742
62.853
55.79
48.563
41.169
33.614
25.906
18.055
10.075
1.976
-6.239
-14.565
-22.997
-31.525
-40.132
-48.799
-57.506
-66.232
-74.952
-83.64
-92.265
-100.798
-109.212
-117.48
-125.576
-133.472
-141.139
-148.548
-155.67
-162.478
-168.942
-175.036
-180.73
-185.997
-190.813
-195.153
-198.996
-202.32
-205.107
-207.339
-209.001
-210.08
-210.566
-210.451
-209.727
-208.391
-206.444
-203.886
-200.723
-196.963
-192.617
-187.696
-182.219
-176.202
-169.669
-162.642
-155.147
-147.212
-138.868
-130.147
-121.082
-111.709
-102.065
-92.188
-82.118
-71.894
-61.555
-51.144
-40.699
-30.261
-19.869
-9.563
0.62
10.644
20.472
30.072
39.409
48.455
57.181
65.561
73.571
81.19
88.4
95.185
101.531
107.428
112.868
117.846
122.359
126.409
129.996
133.128
135.811
138.054
139.872
141.276
142.283
142.911
143.179
143.107
142.718
142.034
141.079
139.877
138.456
136.84
135.055
133.129
131.087
128.956
126.762
124.529
122.281
120.044
117.838
115.685
113.606
111.619
109.742
107.99
106.378
104.918
103.622
102.499
101.556
100.8
100.236
99.866
99.693
99.717
99.936
100.347
100.948
101.732
102.693
103.823
105.113
106.553
108.133
109.84
111.662
113.586
115.599
117.688
119.837
122.034
124.265
126.515
128.771
131.02
133.249
135.446
137.599
139.697
141.731
143.691
145.568
147.354
149.043
150.627
152.101
153.459
154.698
155.814
156.804
157.667
158.403
159.01
159.491
159.847
160.08
160.193
160.19
160.074
159.848
159.518
159.087
158.561
157.944
157.242
156.458
155.599
154.669
153.673
152.614
151.497
150.324
149.099
147.825
146.505
145.141
143.737
142.294
140.816
139.306
137.766
136.2
134.608
132.993
131.357
129.702
128.031
126.344
124.645
122.936
121.223
119.51
117.805
116.111
114.436
112.786
111.169
109.591
108.058
106.573
105.139
103.762
102.451
101.21
100.05
98.976
97.996
97.121
96.357
95.709
95.181
94.768
94.471
94.291
94.231
94.305
94.522
94.883
95.394
96.056
96.859
97.789
98.821
99.913
101.032
102.145
103.226
104.256
105.215
106.082
106.838
107.455
107.904
108.166
108.221
108.07
107.748
107.305
106.812
106.369
106.049
105.934
106.122
106.675
107.647
109.074
110.942
113.273
116.177
119.687
123.733
128.157
132.603
136.706
140.202
142.694
143.632
142.668
139.724
135.007
129.196
123.206
117.829
113.94
112.778
114.171
116.219
117.325
115.141
109.277
103.646
99.487
95.006
86.087
61.916
13.987
-59.446
-157.694
-272.539
-390.745
-499.241
-581.914
-621.85
-607.705
-535.5
-408.436
-242.46
-61.992
109.888
248.956
339.889
383.775
386.013
358.74
318.447
272.25
227.739
193.843
170.643
159.028
156.254
151.854
142.265
127.515
109.162
94.042
84.95
80.688
80.355
81.764
83.559
85.759
87.952
89.458
90.03
89.669
88.251
85.704
82.049
77.349
71.999
66.685
61.746
57.194
52.987
48.989
45.114
41.355
37.552
33.417
28.779
23.578
17.837
11.663
5.124
-1.769
-8.982
-16.45
-24.114
-31.911
-39.792
-47.747
-55.767
-63.836
-71.939
-80.06
-88.182
-96.305
-104.438
-112.585
-120.743
-128.905
-137.054
-145.179
-153.272
-161.326
-169.329
-177.269
-185.129
-192.893
-200.547
-208.078
-215.47
-222.706
-229.764
-236.622
-243.257
-249.646
-255.765
-261.591
-267.097
-272.256
-277.04
-281.424
-285.384
-288.902
-291.957
-294.527
-296.584
-298.098
-299.046
-299.417
-299.207
-298.412
-297.032
-295.08
-292.583
-289.589
-286.142
-282.275
-277.999
-273.312
-268.217
-262.723
-256.839
-250.58
-243.933
-236.881
-229.42
-221.556
-213.295
-204.624
-195.496
-185.828
-175.561
-164.681
-153.218
-141.232
-128.787
-115.955
-102.832
-89.541
-76.249
-63.114
-50.258
-37.778
-25.77
-14.356
-3.701
5.994
14.569
21.925
28.008
32.802
36.295
38.506
39.502
39.407
38.398
36.624
34.192
31.183
27.68
23.791
19.66
15.456
11.305
7.3
3.512
-0.003
-3.187
-6.013
-8.494
-10.694
-12.708
-14.597
-16.389
-18.091
-19.705
-21.248
-22.753
-24.253
-25.751
-27.247
-28.74
-30.23
-31.724
-33.21
-34.654
-36.001
-37.191
-38.184
-38.966
-39.531
-39.878
-40.012
-39.937
-39.672
-39.25
-38.695
-38.023
-37.249
-36.386
-35.459
-34.507
-33.561
-32.643
-31.771
-30.954
-30.198
-29.506
-28.865
-28.239
-27.597
-26.904
-26.147
-25.338
-24.481
-23.581
-22.641
-21.658
-20.654
-19.678
-18.768
-17.947
-17.247
-16.696
-16.356
-16.332
-16.696
-17.496
-18.747
-20.422
-22.5
-24.966
-27.778
-30.883
-34.19
-37.575
